1694473370.00
64.000000
-0.00
-0.00
-0.00
-0.00
-0.00
-0.00
-0.00
-0.00
-0.00
-0.00
0.00
0.01
0.01
-0.00
-0.03
-0.05
-0.05
0.00
0.13
0.36
0.66
1.01
1.37
1.72
2.06
2.40
2.79
3.24
3.80
4.42
5.06
5.66
6.20
6.68
7.15
7.68
8.31
9.14
10.09
11.04
11.88
12.56
13.14
13.76
14.65
15.96
17.91
20.32
22.90
25.38
27.58
29.57
31.68
34.32
37.82
42.54
48.15
54.10
59.83
64.97
69.59
74.18
79.40
85.76
93.77
102.91
112.39
121.35
129.25
136.14
142.65
150.08
157.10
165.94
177.16
190.88
205.92
219.40
227.03
224.15
207.35
175.70
131.51
78.59
21.29
-37.07
-94.85
-151.72
-207.78
-262.84
-316.21
-366.59
-413.14
-455.08
-491.65
-521.71
-543.67
-555.75
-556.36
-544.78
-521.11
-486.73
-443.67
-394.20
-340.45
-284.31
-227.40
-171.28
-117.55
-67.65
-22.88
16.01
48.89
76.17
98.54
116.65
130.95
141.59
148.60
151.82
151.05
146.26
137.97
127.74
118.27
112.83
114.06
122.68
136.95
153.18
167.23
176.10
178.80
176.20
169.99
161.62
151.76
140.62
128.51
116.25
104.89
95.26
87.42
80.72
74.18
67.18
59.48
51.48
43.98
37.70
32.99
29.69
27.26
24.97
22.25
18.77
14.62
10.15
5.84
2.22
-0.36
-1.73
-2.04
-1.69
-1.22
-1.11
-1.67
-2.89
-4.54
-6.30
-7.86
-9.07
-9.89
-10.42
-10.73
-10.87
-10.84
-10.55
-9.90
-8.86
-7.50
-6.04
-4.81
-4.07
-3.93
-4.28
-4.88
-5.50
-5.99
-6.35
-6.62
-6.81
-6.84
-6.58
-5.98
-5.11
-4.15
-3.32
-2.72
-2.34
-2.02
-1.59
-0.93
-0.03
1.01
2.04
2.96
3.68
4.12
4.27
4.11
3.66
3.02
2.35
1.81
1.53
1.47
1.52
1.56
1.50
1.39
1.35
1.49
1.90
2.54
3.31
4.10
4.85
5.57
6.29
7.00
7.59
7.95
7.96
7.58
6.90
6.02
5.01
3.88
2.49
0.79
-1.14
-3.10
-4.86
-6.29
-7.38
-8.24
-8.97
-9.62
-10.12
-10.38
-10.32
-10.00
-9.50
-8.94
-8.41
-7.95
-7.54
-7.15
-6.73
-6.29
-5.88
-5.59
-5.46
-5.52
-5.65
-5.69
-5.45
-4.84
-3.88
-2.69
-1.41
-0.19
0.88
1.72
2.27
2.49
2.43
2.18
1.91
1.74
1.70
1.74
1.73
1.62
1.47
1.37
1.45
1.72
2.06
2.34
2.47
2.46
2.46
2.64
3.09
3.73
4.40
4.91
5.13
5.08
4.86
4.53
4.16
3.76
3.33
2.84
2.32
1.81
1.40
1.15
1.07
1.11
1.21
1.29
1.25
1.05
0.61
-0.04
-0.88
-1.80
-2.69
-3.52
-4.29
-5.04
-5.80
-6.58
-7.31
-7.99
-8.67
-9.45
-10.43
-11.59
-12.72
-13.50
-13.61
-12.88
-11.37
-9.35
-7.18
-5.20
-3.57
-2.29
-1.16
0.05
1.54
3.32
5.27
7.09
8.53
9.44
9.85
9.93
9.85
9.72
9.56
9.39
9.21
9.13
9.23
9.57
10.09
10.65
11.06
11.17
10.91
10.31
9.47
8.57
7.78
7.24
6.99
6.94
6.93
6.76
6.34
5.72
5.02
4.39
3.90
3.51
3.11
2.56
1.83
0.99
0.16
-0.55
-1.13
-1.68
-2.31
-3.11
-4.05
-4.98
-5.77
-6.32
-6.67
-6.96
-7.31
-7.83
-8.53
-9.38
-10.33
-11.30
-12.18
-12.82
-13.05
-12.74
-11.83
-10.36
-8.44
-6.21
-3.90
-1.73
0.06
1.30
1.97
2.17
2.16
2.19
2.39
2.75
3.14
3.42
3.53
3.51
3.44
3.35
3.26
3.12
2.92
2.72
2.66
2.89
3.51
4.49
5.61
6.56
7.03
6.88
6.18
5.16
4.18
3.46
3.11
3.06
3.15
3.22
3.20
3.03
2.74
2.36
1.92
1.51
1.18
0.98
0.90
0.91
0.93
0.91
0.83
0.69
0.52
0.33
0.13
-0.09
-0.38
-0.77
-1.30
-1.92
-2.51
-2.92
-2.99
-2.66
-1.98
-1.04
0.16
1.76
3.97
6.91
10.36
13.76
16.26
17.09
15.93
13.14
9.77
7.28
7.04
9.82
15.54
23.31
31.85
39.83
46.39
51.15
54.33
56.54
58.70
61.78
66.46
72.66
79.25
84.18
85.26
81.20
72.57
61.90
52.90
49.00
51.98
61.20
73.76
85.52
92.39
91.24
80.37
59.44
29.09
-9.54
-55.06
-105.82
-159.59
-213.12
-262.07
-301.48
-326.82
-335.40
-327.26
-305.06
-273.02
-235.38
-195.12
-153.69
-111.59
-69.31
-28.09
10.18
43.42
70.07
89.45
101.54
106.80
105.91
99.78
89.61
76.91
63.28
49.98
37.81
27.09
17.99
10.77
5.80
3.43
3.64
5.87
9.16
12.56
15.47
17.77
19.62
20.99
21.40
20.08
16.43
10.65
3.98
-1.54
-3.97
-2.47
2.15
7.64
11.28
11.24
7.51
2.07
-1.96
-1.70
4.06
14.19
25.21
32.24
30.31
15.86
-11.84
-50.05
-92.70
-131.74
-159.32
-170.20
-163.47
-143.02
-116.22
-91.35
-74.43
-66.93
-65.37
-63.09
-53.61
-33.90
-6.01
23.89
48.45
62.62
65.74
61.30
54.57
49.81
48.53
49.71
51.33
52.15
52.39
53.24
55.70
59.65
63.79
66.33
66.03
62.80
57.84
52.96
49.81
49.13
50.50
52.47
53.28
51.51
46.69
39.52
31.54
24.60
20.09
18.39
18.78
19.73
19.63
17.42
13.03
7.33
1.68
-2.73
-5.27
-6.12
-5.96
-5.56
-5.41
-5.54
-5.63
-5.36
-4.59
-3.49
-2.41
-1.71
-1.52
-1.68
-1.78
-1.36
-0.06
2.23
5.33
8.82
12.22
15.07
17.14
18.48
19.45
20.58
22.36
25.04
28.43
31.95
34.81
36.22
35.62
32.82
27.93
21.31
13.44
4.91
-3.62
-11.48
-18.03
-22.92
-26.10
-27.83
-28.54
-28.66
-28.51
-28.21
-27.79
-27.22
-26.49
-25.60
-24.56
-23.39
-22.11
-20.77
-19.41
-18.07
-16.74
-15.37
-13.92
-12.38
-10.83
-9.41
-8.25
-7.44
-7.01
-6.91
-7.05
-7.36
-7.74
-8.16
-8.55
-8.86
-9.06
-9.14
-9.13
-9.08
-9.04
-9.06
-9.14
-9.28
-9.48
-9.75
-10.14
-10.71
-11.51
-12.53
-13.68
-14.75
-15.52
-15.78
-15.39
-14.36
-12.80
-10.98
-9.16
-7.54
-6.20
-5.11
-4.13
-3.16
-2.16
-1.16
-0.24
0.57
1.30
2.03
2.87
3.83
4.86
5.86
6.68
7.27
7.65
7.90
8.15
8.49
8.93
9.40
9.80
9.98
9.90
9.56
9.06
8.50
7.96
7.48
7.03
6.59
6.12
5.63
5.14
4.68
4.28
3.91
3.52
3.03
2.39
1.61
0.75
-0.11
-0.92
-1.64
-2.33
-2.99
-3.63
-4.23
-4.76
-5.24
-5.79
-6.55
-7.65
-9.09
-10.67
-12.12
-13.09
-13.34
-12.75
-11.36
-9.35
-6.97
-4.44
-1.98
0.24
2.13
3.62
4.75
5.61
6.33
7.08
7.97
9.00
10.11
11.13
11.90
12.29
12.33
12.15
11.91
11.77
11.80
11.93
12.06
12.08
11.98
11.76
11.48
11.17
10.84
10.48
10.08
9.67
9.26
8.90
8.60
8.32
8.00
7.57
6.96
6.16
5.21
4.20
3.21
2.30
1.46
0.65
-0.16
-1.01
-1.86
-2.65
-3.36
-3.99
-4.61
-5.29
-6.12
-7.15
-8.37
-9.68
-10.96
-11.99
-12.60
-12.64
-12.04
-10.83
-9.14
-7.12
-4.96
-2.82
-0.86
0.81
2.12
3.11
3.85
4.48
5.10
5.72
6.26
6.61
6.65
6.37
5.88
5.39
5.08
5.09
5.42
5.98
6.61
7.16
7.54
7.70
7.66
7.48
7.21
6.88
6.53
6.15
5.78
5.44
5.19
5.03
4.94
4.80
4.51
4.01
3.30
2.50
1.73
1.08
0.56
0.13
-0.31
-0.80
-1.35
-1.97
-2.63
-3.36
-4.14
-4.94
-5.67
-6.29
-6.78
-7.24
-7.81
-8.62
-9.67
-10.84
-11.89
-12.54
-12.55
-11.85
-10.47
-8.59
-6.43
-4.27
-2.32
-0.70
0.57
1.57
2.44
3.30
4.17
4.97
5.57
5.88
5.87
5.64
5.35
5.14
5.07
5.13
5.22
5.29
5.31
5.34
5.45
5.69
6.08
6.53
6.95
7.20
7.22
6.98
6.54
5.97
5.38
4.83
4.34
3.90
3.48
3.05
2.60
2.12
1.60
1.03
0.39
-0.28
-0.94
-1.54
-2.02
-2.39
-2.70
-2.99
-3.33
-3.72
-4.14
-4.57
-5.00
-5.46
-6.04
-6.85
-7.98
-9.40
-10.93
-12.27
-13.06
-13.03
-12.10
-10.41
-8.27
-6.05
-3.99
-2.22
-0.71
0.61
1.79
2.79
3.57
4.10
4.43
4.65
4.87
5.12
5.34
5.44
5.34
5.07
4.73
4.49
4.46
4.71
5.19
5.80
6.38
6.78
6.88
6.61
6.02
5.23
4.43
3.76
3.27
2.89
2.53
2.11
1.65
1.19
0.77
0.38
-0.05
-0.58
-1.20
-1.85
-2.39
-2.74
-2.93
-3.04
-3.22
-3.56
-4.09
-4.73
-5.34
-5.80
-6.01
-6.02
-5.97
-6.10
-6.60
-7.56
-8.87
-10.23
-11.26
-11.63
-11.20
-10.01
-8.30
-6.33
-4.37
-2.56
-0.99
0.34
1.40
2.22
2.82
3.24
3.53
3.72
3.80
3.77
3.64
3.49
3.40
3.46
3.66
3.93
4.17
4.27
4.24
4.16
4.14
4.23
4.43
4.60
4.64
4.47
4.10
3.61
3.15
2.76
2.47
2.21
1.91
1.55
1.16
0.83
0.62
0.49
0.35
0.09
-0.36
-0.97
-1.61
-2.16
-2.57
-2.90
-3.27
-3.80
-4.51
-5.34
-6.22
-7.08
-7.94
-8.90
-10.01
-11.28
-12.67
-14.07
-15.31
-16.22
-16.63
-16.40
-15.49
-13.98
-12.07
-9.97
-7.89
-5.90
-4.00
-2.17
-0.43
1.14
2.45
3.46
4.21
4.76
5.17
5.42
5.48
5.31
4.95
4.54
4.23
4.12
4.25
4.51
4.82
5.09
5.28
5.37
5.36
5.23
4.98
4.65
4.36
4.18
4.14
4.17
4.11
3.84
3.27
2.45
1.52
0.66
-0.02
-0.49
-0.83
-1.14
-1.52
-2.03
-2.65
-3.36
-4.14
-5.00
-5.97
-7.05
-8.22
-9.41
-10.54
-11.50
-12.18
-12.52
-12.44
-11.88
-10.83
-9.30
-7.39
-5.22
-2.96
-0.79
1.16
2.80
4.12
5.16
6.01
6.76
7.45
8.08
8.58
8.89
8.94
8.73
8.32
7.82
7.35
7.03
6.92
7.06
7.44
7.97
8.55
9.03
9.29
9.27
8.96
8.42
7.76
7.06
6.39
5.79
5.26
4.76
4.28
3.81
3.36
2.99
2.72
2.63
2.74
3.11
3.75
4.68
5.85
7.18
8.51
9.71
10.63
11.20
11.41
11.25
10.68
9.60
7.86
5.40
2.30
-1.15
-4.54
-7.47
-9.71
-11.29
-12.39
-13.25
-13.99
-14.58
-14.88
-14.77
-14.24
-13.40
-12.43
-11.46
-10.52
-9.52
-8.39
-7.09
-5.72
-4.45
-3.44
-2.77
-2.38
-2.10
-1.73
-1.13
-0.29
0.67
1.58
2.30
2.75
2.95
2.98
2.95
2.96
3.05
3.25
3.52
3.80
3.97
3.91
3.56
2.94
2.13
1.29
0.55
-0.01
-0.36
-0.57
-0.75
-0.99
-1.34
-1.81
-2.35
-2.89
-3.41
-3.92
-4.51
-5.28
-6.33
-7.66
-9.22
-10.86
-12.37
-13.51
-14.08
-13.93
-12.99
-11.33
-9.12
-6.63
-4.17
-2.00
-0.26
1.08
2.17
3.20
4.28
5.46
6.62
7.62
8.31
8.65
8.68
8.52
8.29
8.06
7.89
7.77
7.71
7.74
7.87
8.10
8.38
8.59
8.67
8.54
8.22
7.77
7.25
6.71
6.18
5.67
5.20
4.80
4.48
4.24
4.03
3.80
3.50
3.11
2.61
1.97
1.16
0.18
-0.95
-2.10
-3.13
-3.94
-4.50
-4.92
-5.34
-5.95
-6.81
-7.93
-9.21
-10.56
-11.92
-13.24
-14.40
-15.22
-15.45
-14.87
-13.42
-11.25
-8.70
-6.14
-3.85
-1.87
-0.08
1.67
3.45
5.18
6.65
7.69
8.24
8.39
8.35
8.28
8.31
8.43
8.59
8.75
8.87
8.98
9.12
9.29
9.50
9.70
9.85
9.91
9.83
9.59
9.20
8.66
8.03
7.36
6.70
6.09
5.56
5.09
4.65
4.19
3.68
3.11
2.49
1.89
1.34
0.87
0.41
-0.11
-0.78
-1.64
-2.69
-3.81
-4.94
-5.99
-6.96
-7.91
-8.92
-10.07
-11.40
-12.86
-14.34
-15.71
-16.82
-17.52
-17.71
-17.31
-16.30
-14.73
-12.75
-10.55
-8.34
-6.27
-4.43
-2.80
-1.34
-0.01
1.20
2.29
3.27
4.18
5.10
6.09
7.19
8.38
9.63
10.91
12.18
13.39
14.51
15.52
16.41
17.25
18.11
19.01
19.95
20.82
21.51
21.84
21.68
20.90
19.42
17.25
14.47
11.22
7.68
4.04
0.45
-2.90
-5.81
-8.08
-9.64
-10.56
-11.13
-11.71
-12.57
-13.78
-15.17
-16.42
-17.24
-17.52
-17.37
-17.02
-16.75
-16.76
-17.15
-17.89
-18.85
-19.82
-20.54
-20.73
-20.22
-18.89
-16.84
-14.25
-11.41
-8.60
-6.05
-3.81
-1.87
-0.11
1.57
3.20
4.72
6.02
7.04
7.72
8.12
8.31
8.36
8.35
8.33
8.38
8.55
8.82
9.16
9.45
9.62
9.60
9.43
9.19
8.94
8.72
8.50
8.25
7.94
7.55
7.09
6.54
5.92
5.22
4.50
3.85
3.32
2.95
2.67
2.38
1.97
1.39
0.64
-0.23
-1.16
-2.08
-2.94
-3.70
-4.33
-4.85
-5.34
-5.90
-6.66
-7.68
-8.96
-10.44
-11.99
-13.47
-14.73
-15.61
-15.95
-15.60
-14.51
-12.73
-10.41
-7.84
-5.26
-2.89
-0.83
0.92
2.41
3.70
4.81
5.72
6.40
6.85
7.09
7.19
7.22
7.22
7.17
7.07
6.93
6.83
6.85
7.09
7.53
8.08
8.56
8.79
8.66
8.12
7.24
6.19
5.14
4.26
3.68
3.43
3.41
3.47
3.44
3.19
2.74
2.16
1.60
1.12
0.74
0.48
0.33
0.37
0.72
1.48
2.67
4.24
6.01
7.74
9.15
9.93
9.80
8.54
6.03
2.37
-2.18
-7.14
-11.96
-16.05
-18.98
-20.49
-20.60
-19.52
-17.67
-15.48
-13.35
-11.51
-10.02
-8.84
-7.87
-7.04
-6.27
-5.54
-4.82
-4.11
-3.38
-2.66
-1.94
-1.26
-0.65
-0.11
0.35
0.76
1.13
1.49
1.83
2.11
2.31
2.38
2.28
2.02
1.59
1.05
0.42
-0.23
-0.85
-1.39
-1.81
-2.12
-2.33
-2.49
-2.60
-2.69
-2.78
-2.94
-3.25
-3.78
-4.59
-5.66
-6.85
-7.98
-8.90
-9.56
-10.13
-10.92
-12.24
-14.24
-16.74
-19.35
-21.53
-22.82
-23.01
-22.10
-20.27
-17.79
-14.90
-11.80
-8.71
-5.75
-3.03
-0.57
1.69
3.81
5.84
7.72
9.34
10.57
11.31
11.58
11.49
11.24
11.06
11.09
11.40
11.94
12.64
13.42
14.26
15.12
16.00
16.84
17.59
18.24
18.81
19.36
19.86
20.22
20.23
19.67
18.40
16.44
14.02
11.48
9.22
7.58
6.73
6.64
7.07
7.66
8.04
7.94
7.24
5.94
4.17
2.08
-0.17
-2.41
-4.44
-6.08
-7.18
-7.69
-7.66
-7.22
-6.53
-5.68
-4.71
-3.60
-2.35
-1.01
0.32
1.52
2.56
3.47
4.37
5.38
6.53
7.79
9.02
10.09
10.87
11.31
11.41
11.21
10.80
10.25
9.69
9.21
8.88
8.72
8.75
8.93
9.18
9.41
9.49
9.31
8.82
8.08
7.19
6.31
5.49
4.74
3.98
3.19
2.40
1.69
1.14
0.74
0.40
-0.04
-0.71
-1.63
-2.72
-3.84
-4.87
-5.77
-6.53
-7.21
-7.89
-8.64
-9.54
-10.62
-11.81
-12.92
-13.62
-13.57
-12.56
-10.61
-8.00
-5.15
-2.46
-0.21
1.54
2.87
3.91
4.75
5.44
5.98
6.38
6.65
6.80
6.85
6.74
6.46
6.01
5.46
4.91
4.49
4.31
4.38
4.66
5.02
5.35
5.51
5.47
5.20
4.71
4.03
3.20
2.27
1.31
0.38
-0.44
-1.11
-1.61
-1.98
-2.30
-2.68
-3.19
-3.82
-4.53
-5.27
-6.00
-6.70
-7.37
-7.99
-8.56
-9.09
-9.64
-10.33
-11.24
-12.31
-13.34
-14.03
-14.05
-13.24
-11.61
-9.36
-6.79
-4.21
-1.86
0.15
1.79
3.13
4.24
5.13
5.79
6.17
6.26
6.13
5.89
5.67
5.53
5.44
5.32
5.09
4.75
4.40
4.15
4.07
4.15
4.31
4.41
4.35
4.09
3.63
3.06
2.47
1.94
1.55
1.32
1.19
1.09
0.93
0.60
0.07
-0.68
-1.57
-2.49
-3.32
-3.98
-4.49
-4.94
-5.47
-6.24
-7.31
-8.62
-9.99
-11.20
-12.01
-12.25
-11.81
-10.70
-8.97
-6.81
-4.48
-2.29
-0.52
0.69
1.40
1.78
2.08
2.46
2.99
3.57
4.09
4.44
4.58
4.54
4.39
4.19
3.98
3.80
3.69
3.67
3.74
3.84
3.90
3.82
3.59
3.29
3.13
3.37
4.25
5.94
8.49
11.78
15.55
19.36
22.65
24.88
25.63
24.77
22.47
19.14
15.25
11.14
6.92
2.53
-2.12
-7.02
-11.93
-16.52
-20.47
-23.63
-26.10
-28.07
-29.76
-31.21
-32.24
-32.57
-31.96
-30.34
-27.85
-24.81
-21.54
-18.31
-15.26
-12.44
-9.86
-7.56
-5.59
-4.00
-2.77
-1.83
-1.09
-0.47
0.09
0.63
1.19
1.80
2.49
3.22
3.89
4.40
4.70
4.83
4.92
5.12
5.47
5.90
6.21
6.25
5.91
5.25
4.43
3.61
2.91
2.38
1.98
1.66
1.38
1.09
0.78
0.42
0.01
-0.46
-0.95
-1.46
-2.01
-2.65
-3.42
-4.35
-5.39
-6.41
-7.26
-7.81
-7.97
-7.71
-7.05
-6.02
-4.69
-3.17
-1.59
-0.13
1.10
2.06
2.80
3.43
4.03
4.66
5.26
5.76
6.05
6.12
5.98
5.74
5.51
5.39
5.41
5.52
5.67
5.77
5.80
5.76
5.69
5.60
5.49
5.34
5.16
4.96
4.80
4.72
4.74
4.79
4.80
4.65
4.28
3.69
2.96
2.18
1.47
0.88
0.41
0.03
-0.27
-0.48
-0.54
-0.38
-0.03
0.43
0.87
1.19
1.35
1.44
1.52
1.60
1.51
0.97
-0.31
-2.43
-5.26
-8.41
-11.41
-13.86
-15.54
-16.45
-16.64
-16.18
-15.14
-13.59
-11.73
-9.85
-8.27
-7.22
-6.73
-6.59
-6.50
-6.20
-5.55
-4.59
-3.45
-2.26
-1.11
-0.07
0.82
1.52
1.95
2.12
2.05
1.84
1.56
1.30
1.10
0.98
0.96
1.10
1.36
1.68
1.91
1.91
1.59
1.00
0.27
-0.48
-1.16
-1.80
-2.48
-3.26
-4.13
-5.01
-5.80
-6.46
-7.05
-7.69
-8.54
-9.67
-11.07
-12.57
-13.96
-14.95
-15.28
-14.78
-13.43
-11.35
-8.82
-6.17
-3.72
-1.65
-0.00
1.31
2.43
3.48
4.55
5.68
6.87
8.14
9.50
10.97
12.53
14.15
15.76
17.26
18.60
19.69
20.48
20.90
20.86
20.28
19.07
17.18
14.67
11.66
8.37
5.03
1.84
-1.07
-3.60
-5.73
-7.43
-8.72
-9.62
-10.19
-10.55
-10.77
-10.96
-11.14
-11.32
-11.46
-11.54
-11.55
-11.49
-11.40
-11.32
-11.29
-11.33
-11.46
-11.69
-12.03
-12.45
-12.89
-13.24
-13.34
-13.00
-12.09
-10.54
-8.40
-5.78
-2.90
0.03
2.85
5.45
7.77
9.82
11.59
13.12
14.38
15.35
15.99
16.27
16.18
15.80
15.25
14.72
14.37
14.29
14.50
14.99
15.70
16.56
17.55
18.60
19.58
20.29
20.49
19.92
18.42
15.93
12.55
8.50
4.13
-0.17
-4.04
-7.17
-9.42
-10.81
-11.53
-11.85
-12.07
-12.37
-12.85
-13.42
-13.96
-14.31
-14.40
-14.24
-13.95
-13.68
-13.57
-13.70
-14.08
-14.70
-15.54
-16.56
-17.63
-18.56
-19.02
-18.71
-17.44
-15.26
-12.45
-9.44
-6.61
-4.22
-2.30
-0.74
0.61
1.87
3.08
4.20
5.16
5.92
6.45
6.77
6.94
7.06
7.16
7.31
7.52
7.78
8.10
8.48
8.89
9.30
9.67
9.91
10.01
9.95
9.74
9.43
9.07
8.67
8.24
7.77
7.25
6.65
6.00
5.33
4.70
4.17
3.74
3.37
2.95
2.41
1.70
0.86
-0.00
-0.81
-1.55
-2.24
-2.98
-3.81
-4.76
-5.77
-6.79
-7.81
-8.86
-10.00
-11.26
-12.48
-13.43
-13.80
-13.37
-12.07
-10.08
-7.70
-5.24
-2.94
-0.89
0.91
2.49
3.89
5.07
6.01
6.69
7.17
7.47
7.67
7.81
7.92
8.00
8.05
8.09
8.14
8.21
8.35
8.60
8.90
9.21
9.39
9.36
9.09
8.64
8.12
7.64
7.25
6.98
6.78
6.61
6.39
6.07
5.57
4.86
3.95
2.91
1.86
0.93
0.21
-0.27
-0.58
-0.86
-1.27
-1.91
-2.79
-3.79
-4.74
-5.51
-6.06
-6.47
-6.96
-7.73
-8.92
-10.50
-12.28
-13.95
-15.14
-15.55
-15.00
-13.53
-11.30
-8.65
-5.88
-3.24
-0.85
1.28
3.29
5.35
7.57
10.01
12.55
14.97
17.00
18.43
19.19
19.36
19.08
18.42
17.40
15.92
13.94
11.51
8.83
6.12
3.61
1.41
-0.45
-1.98
-3.24
-4.24
-5.01
-5.56
-5.90
-6.01
-5.91
-5.59
-5.11
-4.57
-4.06
-3.63
-3.32
-3.11
-2.97
-2.91
-2.96
-3.14
-3.43
-3.75
-4.02
-4.18
-4.26
-4.31
-4.39
-4.54
-4.71
-4.87
-5.02
-5.24
-5.66
-6.41
-7.52
-8.88
-10.28
-11.47
-12.18
-12.24
-11.58
-10.23
-8.35
-6.13
-3.80
-1.55
0.48
2.21
3.56
4.57
5.27
5.79
6.20
6.55
6.82
6.96
6.91
6.72
6.50
6.37
6.41
6.57
6.73
6.81
6.75
6.62
6.49
6.42
6.37
6.24
5.95
5.46
4.84
4.22
3.73
3.43
3.29
3.18
2.98
2.62
2.13
1.62
1.21
0.98
0.95
1.07
1.30
1.56
1.80
1.94
1.96
1.86
1.71
1.60
1.58
1.62
1.55
1.08
-0.08
-2.15
-5.13
-8.83
-12.79
-16.46
-19.28
-20.83
-21.01
-19.97
-18.13
-15.94
-13.76
-11.74
-9.88
-8.11
-6.39
-4.76
-3.30
-2.03
-0.91
0.11
1.09
1.99
2.70
3.11
3.21
3.11
3.02
3.09
3.42
3.96
4.57
5.12
5.52
5.76
5.88
5.91
5.86
5.72
5.50
5.23
4.97
4.78
4.63
4.43
4.09
3.57
2.91
2.21
1.60
1.15
0.86
0.65
0.41
0.04
-0.53
-1.28
-2.18
-3.16
-4.14
-5.11
-6.03
-6.88
-7.64
-8.34
-9.05
-9.93
-11.05
-12.37
-13.62
-14.37
-14.21
-12.97
-10.79
-8.11
-5.47
-3.25
-1.58
-0.32
0.80
2.05
3.55
5.27
7.04
8.62
9.78
10.37
10.42
10.11
9.78
9.79
10.49
12.14
14.89
18.71
23.36
28.32
32.93
36.50
38.66
39.41
39.12
38.24
36.97
35.06
31.90
26.87
19.68
10.65
0.59
-9.47
-18.62
-26.32
-32.34
-36.68
-39.39
-40.46
-39.97
-38.08
-35.19
-31.88
-28.77
-26.32
-24.68
-23.67
-22.88
-21.89
-20.47
-18.71
-16.97
-15.73
-15.37
-16.00
-17.35
-18.84
-19.71
-19.23
-16.92
-12.63
-6.65
0.34
7.45
13.67
18.18
20.41
20.26
17.98
14.18
9.57
4.82
0.45
-3.24
-6.11
-8.12
-9.31
-9.77
-9.64
-9.16
-8.57
-8.02
-7.51
-6.95
-6.19
-5.13
-3.84
-2.50
-1.38
-0.70
-0.53
-0.77
-1.19
-1.51
-1.54
-1.23
-0.68
-0.06
0.45
0.78
0.97
1.09
1.19
1.22
1.03
0.47
-0.50
-1.76
-3.09
-4.25
-5.09
-5.64
-6.07
-6.59
-7.39
-8.56
-10.06
-11.77
-13.53
-15.15
-16.45
-17.26
-17.45
-16.91
-15.60
-13.55
-10.90
-7.88
-4.81
-2.02
0.27
2.01
3.36
4.53
5.74
7.04
8.37
9.55
10.49
11.15
11.63
12.02
12.41
12.81
13.23
13.68
14.23
14.93
15.82
16.79
17.66
18.20
18.22
17.69
16.73
15.64
14.81
14.64
15.45
17.30
20.00
23.05
25.85
27.87
28.84
28.81
28.02
26.75
25.14
23.16
20.69
17.57
13.74
9.23
4.14
-1.42
-7.29
-13.26
-19.09
-24.52
-29.34
-33.40
-36.58
-38.79
-39.89
-39.76
-38.35
-35.76
-32.24
-28.11
-23.71
-19.33
-15.14
-11.26
-7.76
-4.70
-2.10
0.04
1.76
3.15
4.27
5.21
6.06
6.91
7.88
9.02
10.29
11.58
12.76
13.71
14.39
14.91
15.35
15.78
16.14
16.33
16.23
15.84
15.24
14.58
14.01
13.59
13.25
12.88
12.39
11.74
10.97
10.16
9.36
8.55
7.66
6.62
5.41
4.10
2.83
1.73
0.86
0.14
-0.59
-1.49
-2.64
-4.00
-5.46
-6.91
-8.29
-9.52
-10.52
-11.09
-11.00
-10.04
-8.15
-5.48
-2.39
0.72
3.49
5.69
7.30
8.39
9.14
9.67
10.07
10.37
10.57
10.69
10.80
10.99
11.31
11.77
12.28
12.70
12.94
13.00
12.92
12.85
12.83
12.87
12.84
12.58
12.00
11.12
10.03
8.91
7.88
6.98
6.15
5.34
4.49
3.65
2.88
2.26
1.82
1.55
1.37
1.18
0.90
0.42
-0.32
-1.35
-2.60
-3.91
-5.09
-5.97
-6.52
-6.85
-7.18
-7.70
-8.56
-9.74
-11.07
-12.31
-13.19
-13.47
-13.00
-11.74
-9.80
-7.40
-4.86
-2.51
-0.60
0.75
1.55
1.90
1.96
1.88
1.79
1.80
1.96
2.28
2.71
3.17
3.57
3.82
3.87
3.76
3.63
3.65
3.99
4.81
6.13
7.95
10.17
12.70
15.41
18.09
20.47
22.17
22.85
22.26
20.34
17.26
13.36
9.05
4.73
0.73
-2.75
-5.61
-7.82
-9.44
-10.58
-11.41
-12.09
-12.75
-13.43
-14.11
-14.72
-15.22
-15.58
-15.80
-15.83
-15.58
-14.95
-13.89
-12.44
-10.76
-9.07
-7.53
-6.18
-4.94
-3.68
-2.35
-1.03
0.11
0.88
1.24
1.27
1.19
1.19
1.36
1.64
1.92
2.08
2.09
2.02
1.98
2.04
2.22
2.47
2.73
2.93
3.07
3.10
3.02
2.83
2.54
2.17
1.78
1.39
1.02
0.69
0.37
0.06
-0.30
-0.73
-1.29
-2.00
-2.82
-3.69
-4.49
-5.16
-5.67
-6.08
-6.53
-7.11
-7.87
-8.74
-9.53
-10.01
-9.99
-9.38
-8.23
-6.74
-5.14
-3.65
-2.36
-1.28
-0.31
0.64
1.66
2.76
3.87
4.89
5.71
6.28
6.65
7.00
7.62
8.80
10.63
12.91
15.15
16.70
17.00
15.78
13.16
9.58
5.54
1.51
-2.25
-5.57
-8.40
-10.69
-12.44
-13.69
-14.54
-15.04
-15.16
-14.72
-13.50
-11.34
-8.27
-4.47
-0.28
3.91
7.73
10.81
12.81
13.45
12.57
10.21
6.64
2.31
-2.29
-6.77
-10.87
-14.43
-17.32
-19.37
-20.39
-20.29
-19.15
-17.25
-14.98
-12.68
-10.54
-8.56
-6.70
-4.91
-3.27
-1.94
-1.04
-0.54
-0.34
-0.24
-0.09
0.14
0.41
0.66
0.85
1.02
1.21
1.45
1.74
2.06
2.38
2.70
2.98
3.18
3.25
3.14
2.86
2.44
1.94
1.41
0.93
0.57
0.34
0.27
0.28
0.29
0.21
-0.01
-0.35
-0.73
-1.10
-1.41
-1.69
-2.03
-2.51
-3.21
-4.16
-5.34
-6.70
-8.17
-9.62
-10.90
-11.82
-12.20
-11.88
-10.82
-9.10
-6.99
-4.79
-2.80
-1.22
-0.06
0.78
1.45
2.03
2.53
2.88
3.02
2.93
2.65
2.26
1.87
1.54
1.32
1.24
1.31
1.48
1.65
1.71
1.57
1.23
0.82
0.52
0.53
0.91
1.58
2.31
2.83
2.93
2.53
1.73
0.71
-0.31
-1.16
-1.77
-2.13
-2.30
-2.32
-2.26
-2.15
-2.09
-2.17
-2.46
-2.99
-3.67
-4.38
-4.98
-5.42
-5.78
-6.20
-6.76
-7.42
-7.91
-7.89
-7.07
-5.38
-3.04
-0.44
2.05
4.21
6.04
7.69
9.31
11.00
12.72
14.39
15.93
17.32
18.56
19.66
20.61
21.42
22.11
22.74
23.36
23.98
24.53
24.93
25.10
25.04
24.82
24.53
24.28
24.07
23.88
23.63
23.25
22.70
21.97
21.04
19.92
18.59
17.09
15.49
13.93
12.53
11.39
10.49
9.69
8.75
7.47
5.75
3.61
1.19
-1.33
-3.87
-6.44
-9.17
-12.24
-15.76
-19.75
-24.09
-28.59
-32.98
-37.01
-40.39
-42.86
-44.20
-44.28
-43.14
-41.02
-38.25
-35.21
-32.23
-29.48
-26.98
-24.66
-22.42
-20.17
-17.92
-15.69
-13.54
-11.54
-9.75
-8.22
-6.95
-5.84
-4.77
-3.63
-2.37
-1.07
0.12
1.05
1.72
2.27
2.93
3.85
5.01
6.22
7.21
7.74
7.73
7.23
6.36
5.31
4.22
3.19
2.28
1.48
0.73
-0.04
-0.84
-1.65
-2.37
-2.92
-3.29
-3.57
-3.88
-4.31
-4.88
-5.47
-5.96
-6.29
-6.52
-6.83
-7.40
-8.37
-9.71
-11.27
-12.78
-13.95
-14.55
-14.44
-13.62
-12.24
-10.59
-8.97
-7.64
-6.68
-6.03
-5.51
-4.96
-4.34
-3.76
-3.40
-3.38
-3.67
-4.10
-4.46
-4.69
-4.93
-5.54
-6.86
-9.00
-11.65
-14.10
-15.53
-15.39
-13.67
-11.03
-8.50
-7.00
-6.92
-7.89
-8.95
-9.00
-7.30
-3.84
0.68
4.95
7.44
6.74
1.99
-6.73
-18.20
-29.91
-38.47
-40.50
-33.81
-18.44
3.03
26.19
46.27
59.76
65.47
64.46
59.13
51.97
44.63
37.72
31.23
25.14
19.75
15.57
12.90
11.47
10.57
9.39
7.53
5.22
3.23
2.41
3.13
5.00
6.99
7.91
7.03
4.54
1.55
-0.31
0.38
4.08
10.13
16.93
22.65
25.99
26.82
26.15
25.72
27.30
32.01
40.08
50.92
63.19
74.97
83.73
86.74
81.87
68.62
48.62
25.06
1.29
-20.72
-41.11
-61.55
-83.73
-107.84
-131.99
-152.82
-166.98
-172.58
-169.74
-160.07
-145.63
-127.92
-107.50
-84.35
-58.64
-31.17
-3.60
21.92
43.41
59.60
70.31
76.29
78.68
78.59
76.74
73.56
69.37
64.62
59.92
55.89
52.93
50.99
49.50
47.45
43.84
38.06
30.29
21.38
12.42
4.17
-3.27
-10.42
-17.93
-26.13
-34.78
-43.18
-50.50
-56.07
-59.48
-60.54
-59.13
-55.29
-49.36
-42.15
-34.85
-28.68
-24.36
-21.77
-20.07
-18.15
-15.25
-11.38
-7.28
-3.99
-2.24
-2.14
-3.13
-4.32
-4.91
-4.44
-2.90
-0.55
2.28
5.49
9.22
13.92
20.03
27.84
37.08
46.93
56.05
63.01
66.76
66.97
64.10
59.25
53.69
48.53
44.52
41.98
40.94
41.18
42.34
43.87
45.14
45.47
44.29
41.29
36.49
30.25
23.26
16.36
10.42
6.04
3.43
2.22
1.61
0.59
-1.68
-5.67
-11.26
-17.82
-24.48
-30.32
-34.74
-37.53
-38.91
-39.37
-39.52
-39.84
-40.72
-42.41
-45.16
-49.16
-54.48
-60.84
-67.50
-73.34
-77.13
-77.81
-74.77
-67.78
-56.97
-42.85
-26.33
-8.76
8.39
23.87
37.14
48.38
58.28
67.51
76.31
84.45
91.29
96.15
98.29
96.88
91.01
80.00
63.93
44.14
23.08
3.58
-12.18
-23.38
-30.52
-34.78
-37.16
-38.05
-37.25
-34.47
-29.84
-23.99
-17.90
-12.43
-8.10
-5.00
-2.95
-1.66
-0.84
-0.17
0.63
1.87
3.71
6.11
8.68
10.80
11.87
11.75
11.03
11.02
13.26
18.83
27.67
38.36
48.43
55.05
55.92
49.98
37.71
21.03
2.87
-13.69
-26.50
-35.07
-40.89
-46.68
-55.06
-67.11
-81.67
-95.89
-106.59
-111.63
-110.61
-104.48
-94.68
-82.40
-68.52
-54.04
-40.36
-29.08
-21.24
-16.74
-14.28
-12.18
-9.46
-6.39
-4.19
-3.89
-5.31
-6.58
-4.73
3.19
18.89
42.10
70.28
98.84
121.98
133.85
130.20
109.51
73.47
26.14
-27.50
-82.84
-136.19
-184.31
-223.55
-249.58
-258.12
-246.54
-215.34
-168.91
-114.73
-61.79
-18.26
10.43
22.93
22.36
15.42
10.30
13.85
29.05
53.78
81.53
103.78
113.14
105.74
82.25
47.30
7.88
-28.45
-55.12
-67.63
-64.33
-46.66
-18.80
13.33
43.59
67.09
81.24
85.91
82.89
75.05
65.45
56.70
50.58
47.78
47.94
49.72
51.34
51.19
48.44
43.31
36.94
30.85
26.40
24.34
24.68
26.77
29.61
32.11
33.31
32.63
30.00
25.93
21.33
17.19
14.20
12.51
11.75
11.31
10.75
10.06
9.65
10.11
11.81
14.68
18.22
21.68
24.35
25.79
25.89
24.80
22.86
20.47
18.08
16.13
15.03
15.03
16.13
18.02
20.20
22.08
23.27
23.65
23.36
22.64
21.69
20.65
19.59
18.66
18.13
18.24
19.00
20.01
20.50
19.59
16.68
11.74
5.37
-1.43
-7.65
-12.54
-15.83
-17.65
-18.37
-18.41
-18.16
-17.90
-17.79
-17.79
-17.80
-17.63
-17.18
-16.50
-15.80
-15.36
-15.40
-15.99
-17.04
-18.45
-20.12
-22.08
-24.36
-26.97
-29.86
-32.84
-35.71
-38.25
-40.24
-41.48
-41.82
-41.16
-39.61
-37.44
-35.11
-33.09
-31.70
-31.05
-30.98
-31.22
-31.48
-31.72
-32.00
-32.51
-33.57
-35.39
-38.13
-41.83
-46.34
-51.08
-55.14
-57.71
-58.61
-58.53
-58.58
-59.43
-60.52
-60.11
-56.08
-47.24
-34.02
-18.29
-2.20
13.02
27.44
41.93
57.00
71.99
85.19
94.80
100.01
101.45
100.92
100.23
100.67
102.66
105.83
109.51
113.12
116.32
119.05
121.46
123.80
126.24
128.78
131.13
132.75
133.05
131.57
128.27
123.70
118.92
115.27
113.78
114.71
117.36
120.31
122.05
121.62
119.10
115.49
112.35
111.28
113.57
119.85
129.75
141.48
151.51
154.98
146.94
124.35
87.65
41.23
-7.81
-52.16
-86.65
-109.53
-122.06
-127.09
-127.47
-125.27
-121.76
-117.80
-114.14
-111.25
-109.07
-106.91
-103.91
-99.36
-93.33
-86.69
-80.73
-76.59
-74.86
-75.42
-77.66
-80.72
-83.80
-86.27
-87.75
-88.16
-87.77
-87.12
-86.84
-87.35
-88.61
-90.02
-90.67
-89.68
-86.61
-81.69
-75.68
-69.50
-63.81
-58.81
-54.29
-49.90
-45.34
-40.54
-35.62
-30.84
-26.44
-22.60
-19.41
-16.82
-14.73
-12.93
-11.15
-9.08
-6.46
-3.06
1.13
6.00
11.25
16.49
21.25
25.09
27.64
28.65
28.11
26.17
23.19
19.56
15.67
11.77
8.01
4.47
1.25
-1.43
-3.28
-4.02
-3.48
-1.76
0.82
3.77
6.52
8.58
9.64
9.62
8.53
6.68
4.27
1.59
-1.14
-3.70
-5.98
-7.97
-9.79
-11.67
-13.69
-15.81
-17.64
-18.68
-18.47
-16.87
-14.27
-11.34
-8.86
-7.26
-6.52
-6.24
-5.95
-5.41
-4.68
-4.09
-3.91
-4.25
-4.95
-5.74
-6.37
-6.66
-6.72
-6.54
-6.22
-5.72
-5.03
-4.12
-3.06
-1.88
-0.63
0.64
1.89
3.00
3.79
4.02
3.48
2.04
-0.30
-3.40
-7.15
-11.44
-16.34
-22.00
-28.59
-36.06
-44.07
-52.00
-59.09
-64.73
-68.71
-71.30
-73.22
-75.28
-78.05
-81.55
-85.20
-88.14
-89.58
-89.17
-87.14
-84.18
-81.05
-78.26
-75.83
-73.28
-69.79
-64.46
-56.66
-46.20
-33.47
-19.35
-4.93
8.81
21.24
32.20
41.81
50.16
57.16
62.53
66.00
67.58
67.58
66.59
65.26
64.06
63.21
62.70
62.42
62.21
61.88
61.30
60.29
58.76
56.72
54.35
51.98
50.03
48.86
48.66
49.33
50.50
51.71
52.61
53.20
53.77
54.84
56.80
59.81
63.66
67.94
72.27
76.37
80.09
83.31
85.81
87.30
87.56
86.58
84.63
82.11
79.40
76.64
73.75
70.53
66.80
62.57
58.00
53.34
48.82
44.68
41.11
38.27
36.24
35.05
34.64
34.89
35.71
37.10
39.12
41.81
45.10
48.81
52.67
56.48
60.15
63.70
67.19
70.59
73.70
76.14
77.43
77.10
74.74
70.17
63.42
54.92
45.44
36.00
27.65
21.19
16.93
14.65
13.66
13.12
12.31
10.93
9.13
7.29
5.74
4.34
2.52
-0.57
-5.55
-12.46
-20.59
-28.74
-35.75
-41.08
-45.00
-48.55
-52.87
-58.79
-66.28
-74.54
-82.23
-88.10
-91.47
-92.50
-92.04
-91.25
-91.26
-92.98
-97.09
-104.29
-114.97
-128.71
-143.76
-157.03
-165.42
-167.40
-164.33
-160.44
-160.99
-169.30
-184.58
-201.86
-214.19
-216.23
-206.50
-187.69
-164.69
-142.36
-123.12
-106.77
-91.59
-75.95
-59.75
-43.99
-29.83
-17.83
-8.54
-1.78
3.12
6.88
10.34
12.86
13.54
12.01
8.37
1.65
-8.86
-23.24
-40.93
-59.80
-79.26
-98.26
-114.66
-126.17
-133.02
-135.69
-134.13
-127.62
-113.92
-94.89
-73.59
-52.77
-34.90
-24.10
-22.47
-29.23
-41.56
-54.58
-69.35
-89.17
-117.00
-133.31
-123.80
-86.33
-31.66
10.70
42.46
67.90
88.87
111.65
136.35
158.94
175.92
186.48
191.87
196.39
199.84
200.85
198.86
193.48
183.79
170.18
154.91
140.31
129.62
121.88
115.17
108.35
100.27
89.31
74.06
54.20
29.14
0.30
-29.48
-56.10
-77.31
-94.97
-111.47
-130.24
-145.73
-150.87
-140.39
-113.97
-75.89
-30.09
15.42
52.12
71.82
73.85
64.20
50.83
38.65
28.18
18.26
7.28
-4.42
-15.05
-21.73
-21.51
-16.02
-7.90
0.13
6.90
11.74
15.42
19.74
27.42
40.36
59.57
86.75
118.74
154.83
193.64
232.50
267.09
292.51
304.28
299.81
279.98
248.41
210.78
171.74
134.32
99.99
69.61
43.83
22.98
6.99
-5.17
-14.77
-23.63
-33.01
-43.07
-52.84
-60.87
-66.13
-68.41
-68.50
-67.36
-66.08
-65.35
-65.26
-65.45
-65.40
-64.71
-63.30
-61.38
-59.22
-57.16
-55.44
-54.14
-53.13
-52.13
-50.91
-49.35
-47.49
-45.41
-43.17
-40.70
-37.85
-34.52
-30.75
-26.81
-23.09
-19.98
-17.66
-16.06
-14.93
-13.97
-12.99
-11.92
-10.85
-9.91
-9.20
-8.74
-8.43
-8.13
-7.71
-7.13
-6.38
-5.54
-4.62
-3.63
-2.57
-1.50
-0.58
0.05
0.24
-0.02
-0.61
-1.35
-2.15
-2.98
-3.92
-5.00
-6.19
-7.37
-8.37
-9.12
-9.66
-10.08
-10.53
-11.04
-11.64
-12.31
-13.08
-14.04
-15.23
-16.57
-17.86
-18.81
-19.13
-18.63
-17.27
-15.15
-12.44
-9.33
-5.98
-2.59
0.64
3.46
5.67
7.18
8.03
8.42
8.60
8.78
9.01
9.25
9.39
9.30
8.96
8.41
7.71
6.99
6.36
5.95
5.87
6.10
6.51
6.91
7.10
6.99
6.63
6.11
5.52
4.90
4.22
3.46
2.64
1.84
1.10
0.44
-0.19
-0.87
-1.60
-2.40
-3.29
-4.29
-5.40
-6.58
-7.69
-8.60
-9.26
-9.78
-10.35
-11.16
-12.26
-13.53
-14.74
-15.66
-16.10
-15.96
-15.15
-13.59
-11.23
-8.18
-4.70
-1.23
1.76
3.94
5.22
5.81
6.02
6.16
6.38
6.66
6.87
6.91
6.69
6.28
5.75
5.18
4.63
4.18
3.91
3.91
4.19
4.69
5.20
5.48
5.35
4.78
3.90
2.92
2.04
1.36
0.87
0.48
0.10
-0.28
-0.66
-0.99
-1.32
-1.74
-2.35
-3.24
-4.35
-5.54
-6.63
-7.48
-8.04
-8.35
-8.56
-8.79
-9.12
-9.61
-10.29
-11.19
-12.31
-13.57
-14.76
-15.56
-15.64
-14.77
-12.91
-10.26
-7.15
-3.98
-1.03
1.51
3.57
5.16
6.34
7.19
7.81
8.29
8.64
8.79
8.67
8.20
7.46
6.61
5.86
5.34
5.07
4.92
4.77
4.59
4.46
4.51
4.80
5.26
5.69
5.85
5.61
5.00
4.20
3.43
2.84
2.41
2.00
1.41
0.52
-0.67
-2.04
-3.43
-4.68
-5.70
-6.45
-6.94
-7.19
-7.30
-7.42
-7.74
-8.38
-9.32
-10.33
-11.12
-11.46
-11.33
-10.96
-10.71
-10.93
-11.71
-12.92
-14.22
-15.18
-15.48
-14.87
-13.31
-10.90
-7.86
-4.51
-1.22
1.68
3.98
5.58
6.58
7.17
7.64
8.24
9.11
10.23
11.42
12.41
12.95
12.89
12.30
11.41
10.51
9.89
9.70
9.94
10.40
10.86
11.07
10.95
10.53
9.96
9.39
8.87
8.34
7.65
6.67
5.38
3.92
2.55
1.56
1.14
1.31
1.84
2.32
2.28
1.43
-0.19
-2.10
-3.60
-4.04
-3.26
-1.77
-0.62
-0.95
-3.47
-8.00
-13.42
-18.11
-20.63
-20.37
-17.95
-14.92
-13.15
-13.90
-17.18
-21.69
-25.36
-26.27
-23.56
-18.12
-12.74
-11.82
-20.66
-44.31
-85.88
-144.65
-214.94
-286.61
-347.45
-386.86
-399.31
-385.79
-352.55
-307.93
-258.80
-208.54
-157.30
-104.06
-48.92
5.73
55.88
97.61
128.93
150.64
165.80
178.23
190.93
204.88
218.93
230.70
237.91
239.52
236.31
230.38
224.21
219.31
215.54
211.22
204.07
192.46
176.51
158.18
140.45
126.17
116.90
112.48
111.31
110.96
108.69
101.89
88.45
67.26
39.02
6.58
-25.54
-52.64
-71.71
-82.94
-89.83
-97.31
-108.79
-123.77
-137.75
-144.86
-141.97
-131.88
-123.29
-126.94
-149.92
-190.97
-240.06
-282.36
-304.74
-301.02
-273.59
-230.89
-182.96
-137.69
-99.14
-68.18
-43.90
-24.57
-7.85
8.94
28.31
51.79
79.11
107.99
134.93
156.38
169.66
173.64
168.94
158.02
144.89
134.41
130.75
135.48
146.25
157.13
160.70
151.40
128.25
95.59
61.00
31.85
12.01
0.76
-5.85
-12.23
-20.82
-31.37
-41.90
-50.39
-55.81
-58.10
-57.53
-54.24
-48.52
-41.39
-34.89
-31.43
-32.67
-38.38
-46.27
-52.74
-54.51
-49.89
-39.34
-25.04
-9.80
3.93
14.64
21.83
25.69
26.77
25.80
23.67
21.60
21.10
23.64
30.10
40.21
52.35
63.95
72.30
75.66
73.97
68.91
63.21
59.54
59.33
62.30
66.72
70.34
71.46
69.74
66.14
62.28
59.48
58.04
57.21
55.69
52.35
46.80
39.32
30.43
20.53
9.69
-2.00
-13.95
-24.91
-33.22
-37.48
-37.17
-32.84
-25.81
-17.59
-9.39
-1.92
4.50
9.72
13.65
16.26
17.67
18.18
18.17
18.02
17.92
17.96
18.05
18.09
17.90
17.34
16.24
14.42
11.73
8.01
3.10
-3.01
-10.04
-17.33
-23.72
-27.87
-28.62
-25.54
-19.19
-11.11
-3.34
2.28
4.73
4.04
1.17
-2.54
-5.84
-7.98
-8.70
-8.09
-6.39
-3.83
-0.65
2.79
5.99
8.38
9.51
9.16
7.49
4.93
2.09
-0.50
-2.48
-3.79
-4.67
-5.58
-7.01
-9.31
-12.54
-16.43
-20.42
-23.87
-26.23
-27.19
-26.74
-25.14
-22.79
-20.11
-17.46
-15.08
-13.07
-11.37
-9.78
-8.08
-6.07
-3.76
-1.37
0.72
2.18
2.88
3.00
2.96
3.25
4.18
5.70
7.48
9.05
10.03
10.31
9.99
9.31
8.47
7.60
6.68
5.68
4.58
3.44
2.37
1.53
1.00
0.82
0.92
1.17
1.42
1.62
1.80
2.07
2.53
3.15
3.77
4.10
3.87
3.00
1.60
-0.01
-1.47
-2.52
-3.10
-3.29
-3.25
-3.09
-2.89
-2.76
-2.89
-3.59
-5.13
-7.60
-10.75
-14.01
-16.70
-18.30
-18.64
-17.93
-16.63
-15.20
-14.00
-13.14
-12.64
-12.45
-12.54
-12.88
-13.38
-13.90
-14.24
-14.16
-13.44
-11.91
-9.52
-6.30
-2.48
1.65
5.76
9.58
12.93
15.74
18.00
19.62
20.47
20.36
19.15
16.87
13.73
10.13
6.50
3.23
0.52
-1.60
-3.25
-4.59
-5.68
-6.50
-6.94
-6.89
-6.37
-5.49
-4.42
-3.29
-2.12
-0.80
0.80
2.74
4.99
7.42
9.79
11.90
13.52
14.46
14.55
13.55
11.33
7.95
3.82
-0.43
-4.04
-6.41
-7.32
-6.96
-5.88
-4.75
-3.99
-3.68
-3.64
-3.54
-3.14
-2.35
-1.39
-0.76
-0.92
-1.93
-3.33
-4.37
-4.20
-2.24
1.62
6.82
12.07
16.04
18.23
19.09
19.74
21.49
25.40
31.91
40.47
49.22
55.86
58.91
58.19
54.61
49.77
45.31
42.23
40.33
37.43
30.49
17.24
-3.09
-29.81
-60.71
-92.46
-119.10
-131.83
-126.10
-106.76
-84.95
-71.14
-70.82
-83.42
-103.19
-123.26
-135.64
-135.11
-120.19
-93.00
-58.59
-23.83
4.87
23.76
30.82
27.08
16.12
2.66
-8.94
-16.03
-18.05
-15.83
-10.64
-3.72
4.04
11.25
16.35
18.19
16.75
13.33
10.38
10.61
15.73
25.80
38.67
50.67
58.13
58.79
52.61
41.78
29.87
20.36
15.69
16.50
21.60
28.49
34.25
36.28
33.45
26.30
16.52
6.27
-2.71
-9.76
-15.40
-20.77
-26.92
-33.56
-39.22
-42.26
-41.90
-38.41
-32.62
-24.95
-14.79
-3.58
6.99
15.15
19.19
17.66
9.93
-3.06
-18.72
-33.76
-44.13
-49.08
-48.67
-43.84
-36.11
-27.21
-18.57
-11.05
-4.63
-0.98
0.30
0.84
2.29
5.66
11.01
17.67
24.52
30.42
34.47
36.56
37.12
36.59
35.28
33.45
31.40
29.47
27.94
26.88
26.37
26.31
26.37
26.12
25.28
23.88
22.19
20.53
19.08
17.97
17.12
16.35
15.53
14.66
13.89
13.35
13.04
12.78
12.32
11.47
10.18
8.54
6.72
4.88
3.07
1.25
-0.65
-2.59
-4.50
-6.26
-7.78
-9.06
-10.14
-11.07
-11.89
-12.57
-13.11
-13.58
-14.14
-14.96
-16.10
-17.39
-18.44
-18.76
-17.91
-15.70
-12.24
-7.93
-3.31
1.09
4.89
7.93
10.23
11.94
13.25
14.26
15.04
15.55
15.76
15.63
15.22
14.60
13.90
13.28
12.81
12.55
12.44
12.41
12.38
12.30
12.23
12.23
12.34
12.51
12.60
12.42
11.89
11.03
10.00
8.97
8.03
7.18
6.29
5.23
3.94
2.45
0.90
-0.60
-1.95
-3.17
-4.33
-5.58
-6.99
-8.58
-10.23
-11.77
-13.06
-14.00
-14.63
-15.09
-15.62
-16.43
-17.70
-19.46
-21.58
-23.76
-25.49
-26.26
-25.69
-23.66
-20.39
-16.35
-12.13
-8.22
-4.88
-2.16
0.06
1.88
3.38
4.52
5.28
5.67
5.79
5.75
5.69
5.67
5.70
5.77
5.86
5.98
6.20
6.56
7.08
7.71
8.33
8.83
9.11
9.13
8.95
8.66
8.37
8.14
7.96
7.76
7.44
6.91
6.11
5.03
3.73
2.26
0.75
-0.69
-1.95
-2.98
-3.78
-4.48
-5.22
-6.16
-7.35
-8.73
-10.15
-11.49
-12.72
-13.95
-15.37
-17.16
-19.32
-21.60
-23.58
-24.76
-24.71
-23.23
-20.42
-16.57
-12.09
-7.39
-2.84
1.32
4.90
7.83
10.09
11.76
13.01
14.00
14.83
15.55
16.11
16.49
16.69
16.77
16.80
16.83
16.87
16.90
16.93
16.97
17.01
17.00
16.85
16.43
15.71
14.72
13.58
12.44
11.42
10.56
9.87
9.34
8.94
8.64
8.34
7.93
7.27
6.29
4.99
3.44
1.74
-0.05
-2.02
-4.31
-7.07
-10.33
-13.93
-17.53
-20.76
-23.34
-25.21
-26.52
-27.54
-28.52
-29.61
-30.89
-32.32
-33.87
-35.42
-36.75
-37.51
-37.22
-35.52
-32.26
-27.65
-22.22
-16.58
-11.27
-6.56
-2.48
1.11
4.36
7.32
9.96
12.19
13.92
15.11
15.72
15.73
15.16
14.08
12.68
11.28
10.19
9.66
9.69
10.10
10.54
10.67
10.27
9.37
8.20
7.06
6.14
5.47
4.89
4.15
3.12
1.83
0.46
-0.78
-1.76
-2.54
-3.30
-4.24
-5.41
-6.71
-7.97
-9.11
-10.19
-11.42
-13.00
-15.02
-17.34
-19.66
-21.71
-23.31
-24.58
-25.77
-27.24
-29.26
-31.88
-34.97
-38.13
-40.81
-42.36
-42.17
-39.84
-35.37
-29.13
-21.80
-14.15
-6.83
-0.23
5.49
10.29
14.16
17.10
19.15
20.47
21.28
21.84
22.30
22.66
22.80
22.62
22.12
21.46
20.91
20.72
21.04
21.81
22.86
23.91
24.71
25.07
24.93
24.34
23.47
22.48
21.53
20.64
19.71
18.58
17.13
15.34
13.36
11.43
9.78
8.59
7.86
7.48
7.23
6.81
5.85
3.96
0.87
-3.45
-8.67
-14.16
-19.14
-23.06
-25.77
-27.60
-29.21
-31.20
-33.90
-37.25
-40.92
-44.53
-47.77
-50.37
-51.97
-52.06
-50.04
-45.50
-38.46
-29.44
-19.27
-8.79
1.40
10.99
19.75
27.36
33.30
37.03
38.27
37.28
34.90
32.32
30.72
30.92
33.15
36.99
41.46
45.19
46.73
44.91
39.21
30.12
19.11
8.31
-0.17
-4.92
-5.65
-3.21
0.87
5.01
8.08
9.59
9.61
8.46
6.47
3.89
0.88
-2.39
-5.81
-9.32
-12.93
-16.68
-20.50
-24.17
-27.30
-29.36
-29.84
-28.26
-24.31
-18.02
-9.84
-0.71
8.09
15.31
20.12
22.30
22.23
20.58
17.94
14.58
10.41
5.14
-1.56
-9.75
-19.06
-28.57
-36.95
-42.75
-44.86
-42.96
-37.61
-30.12
-21.95
-14.24
-7.52
-1.80
3.06
7.06
9.96
11.45
11.40
10.06
8.07
6.15
4.88
4.40
4.47
4.64
4.51
4.02
3.42
3.09
3.33
4.07
4.92
5.38
5.09
4.09
2.77
1.67
1.17
1.30
1.65
1.68
0.96
-0.53
-2.28
-3.54
-3.45
-1.49
2.35
7.56
13.19
18.16
21.48
22.53
21.14
17.65
12.87
7.83
3.47
0.23
-2.19
-4.81
-8.92
-15.48
-24.60
-35.28
-45.81
-54.39
-59.79
-61.71
-60.67
-57.47
-52.82
-47.08
-40.31
-32.60
-24.18
-15.45
-6.94
0.79
7.13
11.46
13.31
12.71
10.41
7.74
6.26
7.05
10.33
15.39
21.00
26.03
29.82
32.30
33.68
34.21
34.08
33.50
32.94
33.10
34.80
38.53
44.22
50.94
57.02
60.39
59.20
52.51
40.75
25.57
9.16
-6.66
-21.00
-33.76
-44.90
-53.77
-58.88
-58.68
-52.57
-41.79
-29.14
-18.04
-11.17
-9.45
-12.24
-18.16
-25.98
-34.81
-43.56
-50.37
-52.64
-48.24
-37.10
-22.08
-8.34
-1.41
-4.56
-17.09
-34.56
-50.72
-60.20
-60.59
-52.95
-40.70
-27.97
-18.17
-13.44
-14.80
-22.35
-34.93
-49.69
-62.18
-67.13
-60.53
-41.50
-13.11
18.51
46.55
66.14
75.84
77.46
74.40
69.75
65.31
61.52
58.32
55.84
54.54
54.78
56.37
58.46
59.89
59.68
57.56
53.94
49.75
45.97
43.22
41.64
40.83
40.12
38.86
36.68
33.63
30.17
26.88
24.18
22.17
20.54
18.81
16.56
13.75
10.72
8.10
6.46
6.09
6.87
8.36
10.06
11.62
12.93
14.10
15.30
16.66
18.18
19.75
21.22
22.40
23.11
23.19
22.52
21.11
19.08
16.66
14.09
11.54
9.05
6.56
3.96
1.21
-1.63
-4.36
-6.74
-8.56
-9.72
-10.23
-10.19
-9.76
-9.09
-8.31
-7.55
-6.95
-6.60
-6.56
-6.78
-7.16
-7.55
-7.84
-7.94
-7.82
-7.52
-7.11
-6.72
-6.53
-6.70
-7.33
-8.36
-9.59
-10.75
-11.64
-12.22
-12.63
-13.12
-13.87
-14.87
-15.88
-16.58
-16.66
-16.00
-14.69
-12.95
-11.00
-9.00
-6.99
-4.98
-3.02
-1.17
0.43
1.68
2.50
2.91
3.04
3.04
3.07
3.24
3.52
3.84
4.07
4.12
3.96
3.61
3.14
2.65
2.21
1.89
1.68
1.52
1.25
0.70
-0.21
-1.42
-2.75
-3.92
-4.76
-5.24
-5.52
-5.81
-6.21
-6.67
-7.03
-7.14
-6.94
-6.53
-6.09
-5.78
-5.68
-5.74
-5.91
-6.10
-6.30
-6.51
-6.76
-7.04
-7.36
-7.71
-8.16
-8.79
-9.65
-10.75
-12.00
-13.19
-14.08
-14.43
-14.11
-13.10
-11.52
-9.56
-7.46
-5.48
-3.80
-2.53
-1.65
-1.06
-0.58
-0.09
0.46
1.03
1.53
1.86
1.98
1.95
1.87
1.80
1.80
1.83
1.88
1.91
1.94
1.97
2.03
2.10
2.15
2.10
1.94
1.68
1.38
1.10
0.87
0.65
0.36
-0.04
-0.60
-1.23
-1.83
-2.29
-2.55
-2.67
-2.78
-3.02
-3.46
-4.07
-4.70
-5.24
-5.61
-5.87
-6.13
-6.47
-6.90
-7.34
-7.69
-7.89
-7.98
-8.07
-8.31
-8.75
-9.38
-10.04
-10.57
-10.71
-10.29
-9.17
-7.34
-4.92
-2.14
0.69
3.30
5.43
6.90
7.67
7.87
7.80
7.83
8.28
9.24
10.53
11.74
12.50
12.65
12.38
12.10
12.24
13.00
14.22
15.50
16.44
16.81
16.64
16.18
15.69
15.25
14.76
13.93
12.54
10.47
7.82
4.72
1.25
-2.77
-7.61
-13.52
-20.35
-27.50
-34.00
-38.96
-42.04
-43.65
-44.94
-47.21
-51.31
-57.37
-65.07
-74.27
-85.36
-98.96
-114.97
-131.82
-146.52
-155.70
-157.27
-151.41
-140.49
-127.79
-115.69
-104.62
-93.41
-80.46
-65.07
-47.98
-30.95
-15.79
-3.48
6.32
15.22
25.11
37.24
51.65
67.12
81.82
93.69
101.27
104.07
103.08
99.60
94.45
87.97
80.71
74.04
70.01
70.55
76.49
87.68
102.11
116.32
126.72
131.14
129.45
123.04
113.80
103.50
94.66
89.10
87.43
89.03
92.79
97.59
102.40
106.18
101.14
83.30
55.19
24.35
-2.75
-23.63
-38.90
-50.28
-59.43
-67.82
-74.96
-80.02
-82.98
-84.92
-87.16
-90.91
-95.31
-99.59
-100.55
-95.47
-83.86
-67.43
-48.79
-29.75
-11.44
4.99
17.68
24.69
25.11
19.50
10.75
