1694472876.00
64.000000
-0.00
-0.00
-0.00
-0.00
-0.00
-0.00
-0.00
-0.00
-0.00
-0.00
0.00
0.01
0.01
-0.00
-0.03
-0.05
-0.05
0.00
0.13
0.36
0.66
1.01
1.37
1.72
2.06
2.40
2.79
3.24
3.80
4.42
5.06
5.66
6.20
6.68
7.15
7.68
8.31
9.14
10.09
11.04
11.88
12.56
13.14
13.76
14.65
15.96
17.91
20.32
22.90
25.38
27.58
29.57
31.68
34.32
37.81
42.54
48.15
54.10
59.83
64.97
69.58
74.14
79.34
85.71
93.76
103.00
112.62
121.73
129.77
136.75
143.30
150.75
157.77
166.64
177.95
191.79
206.97
220.57
228.25
225.36
208.53
176.87
132.76
80.05
23.07
-34.94
-92.44
-149.16
-205.23
-260.37
-313.74
-363.87
-409.83
-450.91
-486.50
-515.74
-537.23
-549.22
-549.96
-538.37
-514.21
-478.67
-433.88
-382.45
-327.02
-269.84
-212.63
-156.66
-102.95
-52.37
-5.90
35.58
71.43
101.35
125.50
144.38
158.69
169.15
176.37
180.75
182.57
182.07
179.51
175.23
169.65
163.18
156.14
148.81
141.30
133.69
126.02
118.34
110.71
103.19
95.86
88.76
81.93
75.38
69.13
63.17
57.51
52.17
47.15
42.44
38.06
33.98
30.20
26.72
23.51
20.60
17.95
15.58
13.48
11.63
10.02
8.64
7.49
6.53
5.75
5.14
4.69
4.37
4.17
4.08
4.09
4.19
4.36
4.61
4.93
5.31
5.76
6.25
6.81
7.41
8.07
8.79
9.55
10.38
11.25
12.18
13.16
14.20
15.29
16.44
17.67
18.98
20.35
21.78
23.25
24.71
26.08
27.27
28.16
28.62
28.51
27.71
26.14
23.76
20.59
16.68
12.18
7.27
2.18
-2.87
-7.62
-11.88
-15.47
-18.27
-20.23
-21.33
-21.65
-21.28
-20.33
-18.93
-17.20
-15.26
-13.19
-11.04
-8.84
-6.64
-4.46
-2.32
-0.19
1.92
4.05
6.24
8.53
10.96
13.51
16.16
18.90
21.76
24.74
27.90
31.23
34.83
38.77
42.91
47.19
51.55
56.01
60.57
65.26
70.14
75.31
80.94
86.79
92.78
98.85
104.99
111.19
117.47
123.87
130.46
137.38
144.21
150.67
156.48
161.34
164.87
166.60
165.81
161.43
155.49
148.59
141.04
133.04
124.71
116.18
107.60
99.13
91.01
83.51
76.35
69.41
62.54
55.71
48.89
42.18
35.73
29.75
24.43
19.52
14.75
9.87
4.67
-0.91
-6.74
-12.55
-17.99
-22.83
-27.26
-31.64
-36.43
-42.03
-48.59
-55.96
-63.69
-71.30
-78.44
-85.26
-92.25
-100.08
-109.34
-120.27
-132.61
-145.83
-159.20
-172.23
-184.87
-197.42
-210.53
-225.07
-242.11
-262.57
-286.67
-313.29
-339.61
-361.47
-374.46
-375.46
-363.73
-341.17
-311.43
-278.62
-245.95
-215.33
-187.48
-162.59
-140.74
-122.02
-106.26
-92.86
-80.87
-69.34
-57.75
-46.11
-34.85
-24.66
-16.00
-9.00
-3.43
1.16
5.30
9.31
13.35
17.30
20.91
23.94
26.22
27.84
29.01
30.05
31.19
32.48
33.74
34.69
35.11
34.93
34.30
33.48
32.71
32.08
31.55
30.87
29.81
28.20
26.06
23.67
21.59
20.47
20.89
23.04
26.56
30.65
34.29
36.62
37.25
36.31
34.30
31.84
29.43
27.42
26.05
25.54
25.93
26.96
27.97
28.09
26.61
23.40
19.09
14.87
11.89
10.78
11.34
12.74
13.95
14.31
13.76
12.68
11.61
10.90
10.54
10.29
9.85
9.09
8.13
7.18
6.40
5.73
4.94
3.81
2.43
1.22
0.89
2.05
4.93
9.14
13.89
18.22
21.42
23.24
23.83
23.56
22.77
21.66
20.26
18.57
16.65
14.66
12.86
11.45
10.56
10.08
9.79
9.39
8.75
7.90
7.07
6.48
6.23
6.23
6.20
5.87
5.10
3.98
2.76
1.77
1.19
1.00
1.01
0.87
0.31
-0.85
-2.56
-4.56
-6.38
-7.46
-7.27
-5.52
-2.29
1.93
6.44
10.51
13.66
15.73
16.84
17.28
17.31
17.03
16.48
15.64
14.54
13.26
11.93
10.64
9.46
8.36
7.27
6.09
4.82
3.52
2.36
1.50
1.01
0.81
0.68
0.36
-0.31
-1.32
-2.47
-3.46
-4.05
-4.17
-3.91
-3.56
-3.46
-3.93
-5.07
-6.73
-8.45
-9.52
-9.30
-7.40
-3.96
0.45
5.05
9.05
12.00
13.84
14.75
15.00
14.77
14.15
13.13
11.75
10.12
8.36
6.61
4.96
3.42
2.00
0.67
-0.51
-1.47
-2.09
-2.30
-2.10
-1.66
-1.25
-1.18
-1.64
-2.64
-3.99
-5.40
-6.58
-7.33
-7.55
-7.26
-6.57
-5.74
-5.08
-4.87
-5.18
-5.75
-5.98
-5.22
-3.06
0.46
4.79
9.17
12.86
15.46
16.88
17.30
16.91
15.87
14.35
12.55
10.70
9.07
7.81
6.93
6.27
5.61
4.82
3.88
2.96
2.25
1.83
1.61
1.35
0.77
-0.26
-1.64
-3.06
-4.17
-4.71
-4.67
-4.28
-3.88
-3.81
-4.26
-5.30
-6.78
-8.38
-9.63
-9.98
-8.98
-6.44
-2.62
1.90
6.31
9.92
12.34
13.53
13.70
13.22
12.37
11.36
10.30
9.23
8.18
7.16
6.20
5.32
4.53
3.90
3.42
3.12
2.96
2.90
2.88
2.84
2.70
2.38
1.82
0.97
-0.13
-1.38
-2.59
-3.54
-4.10
-4.26
-4.18
-4.19
-4.57
-5.53
-6.97
-8.58
-9.86
-10.27
-9.45
-7.32
-4.09
-0.23
3.67
7.08
9.64
11.26
12.09
12.33
12.16
11.62
10.66
9.30
7.67
6.03
4.61
3.55
2.75
2.04
1.22
0.25
-0.74
-1.54
-1.96
-2.01
-1.86
-1.77
-2.00
-2.62
-3.61
-4.74
-5.78
-6.56
-6.99
-7.12
-7.06
-6.93
-6.88
-7.01
-7.38
-7.92
-8.38
-8.31
-7.28
-4.99
-1.54
2.60
6.70
10.11
12.46
13.78
14.35
14.48
14.33
13.86
12.92
11.48
9.71
7.91
6.43
5.45
4.92
4.62
4.29
3.71
2.82
1.72
0.63
-0.24
-0.81
-1.17
-1.58
-2.24
-3.27
-4.52
-5.72
-6.57
-6.92
-6.87
-6.67
-6.63
-6.96
-7.73
-8.89
-10.29
-11.60
-12.37
-12.04
-10.21
-6.75
-2.01
3.25
8.16
11.97
14.33
15.32
15.30
14.66
13.70
12.56
11.22
9.66
7.90
6.05
4.31
2.87
1.82
1.15
0.67
0.18
-0.47
-1.20
-1.83
-2.11
-1.95
-1.50
-1.10
-1.11
-1.69
-2.70
-3.77
-4.51
-4.73
-4.52
-4.23
-4.25
-4.82
-5.98
-7.53
-9.12
-10.34
-10.77
-10.05
-7.99
-4.58
-0.21
4.51
8.81
12.05
13.87
14.36
13.93
13.11
12.29
11.60
10.93
10.02
8.72
7.00
5.09
3.26
1.74
0.60
-0.24
-0.89
-1.42
-1.82
-2.02
-2.05
-2.00
-2.09
-2.48
-3.24
-4.24
-5.30
-6.22
-6.93
-7.52
-8.13
-8.86
-9.69
-10.48
-11.06
-11.32
-11.27
-11.04
-10.77
-10.55
-10.30
-9.83
-8.79
-6.84
-3.73
0.52
5.52
10.56
14.77
17.47
18.43
17.95
16.70
15.37
14.32
13.50
12.55
11.09
9.04
6.70
4.54
2.94
1.95
1.30
0.57
-0.49
-1.82
-3.14
-4.11
-4.60
-4.73
-4.81
-5.13
-5.78
-6.58
-7.23
-7.47
-7.25
-6.80
-6.53
-6.85
-7.96
-9.74
-11.65
-12.83
-12.44
-9.97
-5.50
0.28
6.29
11.52
15.34
17.67
18.83
19.28
19.30
18.95
18.10
16.67
14.77
12.66
10.66
8.95
7.54
6.27
4.95
3.48
1.90
0.39
-0.84
-1.63
-1.93
-1.91
-1.83
-2.00
-2.63
-3.71
-5.06
-6.36
-7.30
-7.73
-7.71
-7.50
-7.43
-7.77
-8.68
-10.13
-11.91
-13.63
-14.72
-14.59
-12.74
-9.06
-3.82
2.23
8.22
13.35
17.10
19.39
20.35
20.27
19.41
17.97
16.13
14.10
12.10
10.35
8.93
7.82
6.87
5.84
4.53
2.85
0.89
-1.07
-2.73
-3.80
-4.22
-4.16
-3.96
-4.00
-4.55
-5.68
-7.19
-8.74
-9.95
-10.50
-10.30
-9.51
-8.49
-7.71
-7.62
-8.43
-10.06
-12.04
-13.58
-13.82
-12.16
-8.43
-3.07
3.05
8.95
13.82
17.23
19.14
19.75
19.33
18.10
16.21
13.83
11.16
8.45
5.97
3.93
2.41
1.38
0.70
0.16
-0.41
-1.03
-1.61
-1.91
-1.77
-1.16
-0.33
0.32
0.41
-0.30
-1.71
-3.46
-5.11
-6.28
-6.82
-6.82
-6.51
-6.22
-6.24
-6.76
-7.86
-9.45
-11.19
-12.54
-12.86
-11.60
-8.60
-4.13
1.11
6.28
10.62
13.67
15.29
15.59
14.82
13.29
11.31
9.19
7.21
5.58
4.39
3.59
3.01
2.44
1.75
0.86
-0.20
-1.27
-2.22
-2.89
-3.20
-3.20
-3.04
-2.94
-3.14
-3.75
-4.73
-5.91
-7.04
-7.88
-8.33
-8.48
-8.58
-8.95
-9.87
-11.39
-13.21
-14.69
-15.06
-13.62
-10.14
-4.92
1.24
7.30
12.34
15.81
17.63
18.07
17.56
16.44
14.91
13.08
10.99
8.77
6.65
4.86
3.60
2.88
2.60
2.53
2.45
2.24
1.85
1.32
0.66
-0.13
-1.10
-2.23
-3.47
-4.63
-5.58
-6.21
-6.60
-6.92
-7.42
-8.31
-9.68
-11.44
-13.25
-14.58
-14.74
-13.17
-9.67
-4.51
1.53
7.44
12.25
15.41
16.88
17.04
16.47
15.68
14.89
14.09
13.13
11.87
10.28
8.44
6.55
4.80
3.31
2.15
1.26
0.62
0.16
-0.17
-0.47
-0.85
-1.43
-2.24
-3.16
-3.99
-4.54
-4.68
-4.56
-4.51
-4.98
-6.32
-8.59
-11.55
-14.66
-17.24
-18.63
-18.39
-16.32
-12.56
-7.50
-1.73
4.07
9.25
13.35
16.12
17.59
17.96
17.56
16.72
15.71
14.66
13.54
12.26
10.64
8.63
6.32
3.93
1.76
0.11
-0.85
-1.13
-0.86
-0.35
0.07
0.07
-0.54
-1.74
-3.36
-5.04
-6.47
-7.41
-7.87
-7.98
-8.09
-8.56
-9.71
-11.64
-14.12
-16.62
-18.29
-18.34
-16.23
-12.03
-6.40
-0.31
5.25
9.63
12.60
14.27
14.86
14.50
13.28
11.31
8.84
6.27
4.10
2.64
2.00
1.94
2.07
1.93
1.28
0.19
-1.09
-2.17
-2.81
-3.00
-2.97
-2.98
-3.29
-3.96
-4.93
-6.05
-7.16
-8.13
-8.88
-9.40
-9.74
-10.03
-10.37
-10.69
-10.66
-9.74
-7.43
-3.57
1.47
6.87
11.62
14.96
16.61
16.76
15.91
14.50
12.78
10.79
8.49
5.99
3.54
1.54
0.24
-0.30
-0.33
-0.17
-0.14
-0.35
-0.78
-1.32
-1.90
-2.53
-3.24
-4.01
-4.74
-5.33
-5.70
-5.90
-6.01
-6.10
-6.23
-6.38
-6.57
-6.90
-7.43
-8.03
-8.35
-7.86
-6.07
-2.89
1.34
5.86
9.85
12.66
14.06
14.18
13.38
12.08
10.59
9.15
7.90
6.90
6.06
5.21
4.12
2.67
0.94
-0.84
-2.34
-3.31
-3.69
-3.66
-3.52
-3.58
-3.99
-4.76
-5.72
-6.61
-7.16
-7.26
-6.91
-6.29
-5.69
-5.48
-5.94
-7.21
-9.22
-11.54
-13.54
-14.39
-13.46
-10.49
-5.79
-0.19
5.31
9.82
12.93
14.68
15.47
15.67
15.50
14.95
13.95
12.46
10.65
8.77
7.08
5.68
4.52
3.45
2.33
1.15
0.01
-0.88
-1.37
-1.49
-1.45
-1.53
-2.01
-3.01
-4.41
-5.88
-7.04
-7.66
-7.72
-7.48
-7.32
-7.67
-8.72
-10.40
-12.24
-13.54
-13.52
-11.60
-7.65
-2.10
4.21
10.25
15.11
18.31
19.79
19.87
18.99
17.58
15.89
14.03
12.08
10.09
8.18
6.45
4.96
3.66
2.44
1.15
-0.26
-1.70
-3.02
-4.05
-4.75
-5.23
-5.69
-6.30
-7.09
-7.91
-8.53
-8.78
-8.67
-8.35
-8.09
-8.15
-8.68
-9.72
-11.17
-12.76
-14.05
-14.51
-13.60
-11.00
-6.81
-1.57
3.92
8.78
12.46
14.77
15.87
16.08
15.65
14.81
13.61
12.17
10.60
9.06
7.63
6.35
5.19
4.09
3.01
1.89
0.78
-0.31
-1.29
-2.09
-2.66
-3.00
-3.17
-3.30
-3.52
-3.90
-4.46
-5.13
-5.77
-6.24
-6.46
-6.47
-6.49
-6.83
-7.77
-9.41
-11.48
-13.41
-14.42
-13.82
-11.34
-7.23
-2.17
2.97
7.48
10.95
13.33
14.74
15.34
15.24
14.51
13.25
11.63
9.86
8.10
6.42
4.78
3.16
1.58
0.16
-1.00
-1.76
-2.09
-2.03
-1.71
-1.32
-1.05
-1.09
-1.51
-2.27
-3.18
-4.05
-4.69
-5.04
-5.17
-5.25
-5.53
-6.23
-7.52
-9.38
-11.51
-13.34
-14.12
-13.21
-10.34
-5.82
-0.45
4.79
9.06
11.87
13.21
13.36
12.73
11.73
10.66
9.67
8.80
7.97
7.03
5.94
4.72
3.50
2.43
1.61
1.00
0.50
0.05
-0.37
-0.74
-1.09
-1.53
-2.19
-3.11
-4.22
-5.27
-5.94
-6.10
-5.81
-5.36
-5.06
-5.19
-5.89
-7.09
-8.61
-10.06
-10.99
-10.85
-9.24
-6.05
-1.61
3.38
8.05
11.66
13.85
14.62
14.32
13.35
12.07
10.68
9.20
7.66
6.03
4.38
2.78
1.41
0.36
-0.31
-0.67
-0.91
-1.21
-1.70
-2.36
-3.06
-3.63
-4.01
-4.26
-4.55
-5.08
-5.88
-6.86
-7.80
-8.51
-8.96
-9.26
-9.60
-10.21
-11.20
-12.59
-14.30
-16.07
-17.53
-18.13
-17.31
-14.70
-10.34
-4.73
1.33
6.97
11.54
14.80
16.79
17.72
17.82
17.26
16.21
14.87
13.42
12.02
10.70
9.42
8.13
6.84
5.67
4.80
4.35
4.30
4.47
4.57
4.26
3.35
1.87
0.02
-1.85
-3.42
-4.54
-5.20
-5.53
-5.73
-6.00
-6.54
-7.51
-8.91
-10.55
-11.92
-12.34
-11.22
-8.31
-3.88
1.30
6.23
10.16
12.73
14.09
14.63
14.70
14.40
13.59
12.15
10.10
7.76
5.54
3.76
2.48
1.43
0.22
-1.37
-3.25
-5.04
-6.29
-6.77
-6.57
-6.08
-5.74
-5.84
-6.39
-7.24
-8.09
-8.71
-8.97
-8.86
-8.46
-7.99
-7.78
-8.23
-9.64
-12.06
-15.06
-17.84
-19.34
-18.73
-15.59
-10.17
-3.24
4.12
10.86
16.18
19.63
21.18
21.07
19.77
17.79
15.64
13.71
12.18
11.07
10.23
9.46
8.59
7.49
6.12
4.54
2.86
1.27
-0.07
-1.06
-1.70
-2.18
-2.74
-3.60
-4.86
-6.42
-8.03
-9.36
-10.18
-10.42
-10.25
-10.01
-10.09
-10.83
-12.26
-14.03
-15.41
-15.50
-13.56
-9.40
-3.52
3.00
8.86
13.06
15.19
15.51
14.64
13.28
11.88
10.61
9.45
8.30
7.14
6.02
4.96
3.93
2.90
1.82
0.77
-0.09
-0.53
-0.39
0.30
1.24
1.97
2.00
1.06
-0.78
-3.11
-5.35
-6.99
-7.76
-7.70
-7.14
-6.50
-6.22
-6.63
-7.86
-9.79
-11.94
-13.48
-13.49
-11.24
-6.60
-0.17
6.87
13.16
17.67
20.03
20.52
19.79
18.50
17.06
15.56
13.98
12.29
10.55
8.88
7.30
5.72
3.93
1.80
-0.63
-3.10
-5.20
-6.58
-7.15
-7.13
-6.95
-7.09
-7.79
-9.00
-10.39
-11.59
-12.39
-12.78
-12.99
-13.29
-13.87
-14.83
-16.06
-17.31
-18.14
-18.01
-16.38
-12.97
-7.90
-1.76
4.53
10.09
14.24
16.80
17.90
17.90
17.13
15.83
14.13
12.16
10.05
7.98
6.10
4.55
3.43
2.71
2.33
2.18
2.09
1.97
1.76
1.48
1.15
0.73
0.06
-1.05
-2.74
-4.99
-7.65
-10.49
-13.37
-16.29
-19.32
-22.45
-25.34
-27.28
-27.36
-24.79
-19.37
-11.65
-2.85
5.58
12.47
17.25
20.04
21.39
21.93
22.02
21.69
20.78
19.14
16.82
14.11
11.39
9.00
7.16
5.83
4.87
4.03
3.13
2.07
0.87
-0.33
-1.40
-2.27
-3.01
-3.77
-4.75
-6.09
-7.88
-10.07
-12.62
-15.45
-18.35
-20.87
-22.26
-21.67
-18.47
-12.59
-4.72
3.85
11.66
17.62
21.28
22.85
22.92
22.05
20.62
18.74
16.48
13.93
11.31
8.83
6.65
4.81
3.29
2.02
0.97
0.12
-0.56
-1.05
-1.42
-1.67
-1.85
-2.03
-2.31
-2.81
-3.64
-4.86
-6.47
-8.44
-10.83
-13.64
-16.72
-19.69
-21.75
-21.98
-19.65
-14.61
-7.50
0.46
7.87
13.71
17.58
19.72
20.61
20.67
20.06
18.71
16.58
13.79
10.67
7.64
5.06
3.12
1.79
0.90
0.17
-0.64
-1.72
-3.07
-4.61
-6.11
-7.35
-8.24
-8.87
-9.43
-10.17
-11.21
-12.52
-13.97
-15.39
-16.76
-18.04
-19.14
-19.72
-19.19
-16.90
-12.48
-6.08
1.55
9.26
15.87
20.61
23.22
23.94
23.30
21.84
19.95
17.82
15.51
13.02
10.43
7.87
5.59
3.83
2.72
2.23
2.09
1.97
1.53
0.63
-0.64
-2.07
-3.40
-4.50
-5.38
-6.17
-7.08
-8.31
-9.98
-12.17
-14.82
-17.71
-20.37
-22.10
-22.12
-19.81
-15.04
-8.30
-0.61
6.76
12.75
16.78
18.88
19.44
18.95
17.73
15.87
13.40
10.39
7.11
3.95
1.28
-0.70
-2.05
-3.01
-3.88
-4.87
-6.00
-7.09
-7.91
-8.24
-8.03
-7.44
-6.83
-6.61
-7.10
-8.50
-10.75
-13.54
-16.27
-18.17
-18.38
-16.29
-11.76
-5.28
2.08
9.07
14.68
18.47
20.63
21.73
22.27
22.47
22.17
21.04
18.88
15.77
12.13
8.49
5.32
2.85
1.03
-0.35
-1.57
-2.83
-4.15
-5.43
-6.41
-6.90
-6.89
-6.60
-6.44
-6.83
-8.06
-10.21
-13.13
-16.42
-19.45
-21.42
-21.47
-19.01
-13.91
-6.72
1.46
9.31
15.71
20.11
22.57
23.56
23.67
23.26
22.41
20.99
18.87
16.13
13.03
9.99
7.38
5.42
4.05
3.00
1.94
0.60
-1.07
-2.90
-4.60
-5.96
-6.92
-7.61
-8.28
-9.19
-10.45
-12.10
-14.10
-16.39
-18.90
-21.34
-23.13
-23.49
-21.61
-17.14
-10.33
-2.13
6.12
13.14
18.12
20.86
21.71
21.26
20.10
18.62
16.97
15.20
13.27
11.23
9.16
7.20
5.50
4.17
3.19
2.45
1.78
0.98
-0.06
-1.35
-2.78
-4.20
-5.47
-6.56
-7.54
-8.55
-9.76
-11.33
-13.35
-15.86
-18.72
-21.54
-23.61
-24.07
-22.19
-17.70
-11.00
-3.10
4.71
11.28
15.94
18.61
19.60
19.44
18.55
17.26
15.71
14.05
12.32
10.54
8.71
6.84
4.96
3.18
1.64
0.47
-0.24
-0.52
-0.48
-0.33
-0.30
-0.65
-1.56
-3.11
-5.23
-7.70
-10.19
-12.42
-14.26
-15.81
-17.35
-19.11
-21.04
-22.65
-23.09
-21.50
-17.40
-11.02
-3.29
4.50
11.15
16.00
18.99
20.48
20.94
20.68
19.76
18.13
15.83
13.06
10.17
7.49
5.25
3.48
2.09
0.93
-0.12
-1.14
-2.21
-3.47
-5.09
-7.19
-9.73
-12.48
-15.06
-17.12
-18.48
-19.25
-19.75
-20.44
-21.69
-23.68
-26.30
-29.13
-31.39
-32.18
-30.68
-26.41
-19.52
-10.80
-1.47
7.17
14.11
18.90
21.59
22.60
22.50
21.81
20.94
20.13
19.47
18.85
18.05
16.81
14.99
12.63
9.99
7.47
5.45
4.10
3.38
3.02
2.64
1.86
0.48
-1.52
-3.93
-6.39
-8.50
-9.96
-10.62
-10.62
-10.25
-10.01
-10.31
-11.45
-13.33
-15.41
-16.82
-16.58
-14.06
-9.21
-2.70
4.33
10.71
15.63
18.86
20.63
21.39
21.44
20.98
20.07
18.91
17.85
17.26
17.38
18.16
19.33
20.51
21.50
22.28
22.94
23.55
24.03
24.19
23.84
22.94
21.59
20.05
18.55
17.28
16.31
15.58
14.90
13.95
12.32
9.70
6.07
1.66
-3.07
-7.66
-11.88
-15.66
-19.01
-21.78
-23.72
-24.64
-24.67
-24.41
-24.74
-26.42
-29.61
-33.72
-37.72
-40.55
-41.63
-40.97
-39.00
-36.18
-32.92
-29.68
-27.24
-26.71
-29.09
-34.54
-41.88
-48.75
-52.50
-51.38
-45.38
-36.22
-26.38
-17.92
-11.49
-6.27
-0.66
6.68
16.03
26.41
36.04
42.99
45.93
44.37
38.72
29.91
19.06
7.18
-4.85
-16.17
-25.82
-32.71
-35.81
-34.49
-28.84
-19.80
-9.08
1.31
9.70
15.16
17.78
18.35
17.94
17.41
17.09
16.84
16.34
15.31
13.72
11.75
9.66
7.59
5.61
3.85
2.58
2.27
3.32
5.84
9.44
13.40
16.91
19.55
21.33
22.67
24.03
25.64
27.42
29.11
30.47
31.42
31.96
31.95
31.06
28.85
25.04
19.72
13.47
7.19
1.84
-1.89
-3.78
-4.06
-3.34
-2.37
-1.76
-1.85
-2.64
-3.89
-5.28
-6.55
-7.55
-8.21
-8.54
-8.52
-8.17
-7.57
-6.83
-6.07
-5.43
-4.92
-4.49
-4.04
-3.48
-2.87
-2.40
-2.30
-2.81
-3.97
-5.60
-7.35
-8.77
-9.45
-9.22
-8.07
-6.18
-3.94
-1.73
0.01
0.97
1.02
0.23
-1.07
-2.43
-3.39
-3.65
-3.11
-1.94
-0.47
0.94
2.02
2.65
2.89
2.84
2.64
2.43
2.31
2.36
2.67
3.23
3.97
4.71
5.24
5.42
5.24
4.85
4.41
4.10
3.99
4.14
4.58
5.41
6.61
7.99
9.15
9.55
8.78
6.74
3.73
0.33
-2.83
-5.28
-6.86
-7.66
-7.82
-7.50
-6.66
-5.31
-3.56
-1.75
-0.30
0.38
0.19
-0.62
-1.52
-1.90
-1.42
-0.15
1.50
2.96
3.75
3.70
2.93
1.71
0.33
-0.90
-1.74
-1.97
-1.48
-0.42
0.84
1.79
1.94
1.16
-0.39
-2.22
-3.86
-5.06
-5.79
-6.24
-6.51
-6.56
-6.13
-4.91
-2.73
0.31
3.77
7.03
9.53
10.99
11.49
11.43
11.22
11.15
11.23
11.24
11.02
10.50
9.80
9.13
8.59
8.13
7.65
7.03
6.22
5.23
4.04
2.63
0.94
-1.02
-3.11
-5.15
-6.88
-8.18
-8.94
-9.16
-8.84
-8.05
-6.93
-5.76
-4.89
-4.62
-5.08
-6.10
-7.26
-7.96
-7.72
-6.29
-3.82
-0.78
2.19
4.53
5.91
6.30
5.94
5.10
4.01
2.80
1.55
0.31
-0.79
-1.64
-2.19
-2.48
-2.63
-2.74
-2.88
-3.07
-3.24
-3.36
-3.37
-3.26
-3.05
-2.75
-2.45
-2.24
-2.25
-2.54
-3.08
-3.79
-4.51
-5.06
-5.22
-4.80
-3.67
-1.89
0.31
2.49
4.19
5.10
5.12
4.41
3.26
1.96
0.64
-0.69
-2.04
-3.40
-4.63
-5.51
-5.81
-5.39
-4.25
-2.58
-0.67
1.12
2.50
3.29
3.49
3.13
2.30
1.07
-0.54
-2.48
-4.64
-6.77
-8.62
-9.93
-10.57
-10.46
-9.56
-7.84
-5.29
-2.04
1.65
5.32
8.46
10.58
11.42
10.97
9.49
7.41
5.12
2.93
0.97
-0.71
-2.07
-2.95
-3.17
-2.55
-1.12
0.79
2.73
4.20
4.92
4.89
4.35
3.62
2.89
2.15
1.26
0.07
-1.46
-3.19
-4.85
-6.21
-7.15
-7.71
-7.96
-7.92
-7.49
-6.48
-4.78
-2.46
0.17
2.65
4.57
5.71
6.12
5.97
5.54
5.02
4.54
4.13
3.78
3.46
3.13
2.73
2.25
1.65
0.94
0.16
-0.63
-1.35
-1.92
-2.26
-2.35
-2.26
-2.13
-2.11
-2.33
-2.73
-3.19
-3.57
-3.76
-3.85
-3.99
-4.36
-5.06
-6.02
-7.03
-7.78
-8.00
-7.50
-6.27
-4.44
-2.31
-0.17
1.76
3.37
4.70
5.78
6.63
7.15
7.17
6.63
5.55
4.14
2.67
1.41
0.50
-0.00
-0.17
-0.14
-0.05
-0.05
-0.22
-0.60
-1.13
-1.72
-2.22
-2.52
-2.52
-2.25
-1.80
-1.40
-1.28
-1.63
-2.51
-3.74
-5.00
-5.91
-6.18
-5.68
-4.49
-2.83
-0.95
0.92
2.60
4.00
5.05
5.77
6.17
6.27
6.04
5.44
4.50
3.31
2.02
0.81
-0.19
-1.00
-1.67
-2.28
-2.82
-3.19
-3.25
-2.96
-2.41
-1.78
-1.33
-1.17
-1.27
-1.51
-1.74
-1.91
-2.11
-2.51
-3.19
-4.09
-4.96
-5.42
-5.11
-3.87
-1.75
0.96
3.80
6.29
8.05
8.89
8.79
7.95
6.67
5.27
4.00
3.00
2.25
1.67
1.18
0.75
0.43
0.28
0.34
0.53
0.72
0.70
0.32
-0.40
-1.33
-2.23
-2.86
-3.10
-3.00
-2.78
-2.69
-2.92
-3.50
-4.28
-5.07
-5.71
-6.09
-6.13
-5.75
-4.81
-3.23
-1.05
1.49
4.05
6.27
7.89
8.79
9.03
8.72
7.96
6.86
5.52
4.08
2.75
1.66
0.90
0.48
0.30
0.25
0.22
0.13
-0.03
-0.24
-0.46
-0.68
-0.90
-1.18
-1.51
-1.89
-2.24
-2.49
-2.58
-2.59
-2.65
-2.96
-3.67
-4.82
-6.28
-7.74
-8.79
-9.03
-8.16
-6.16
-3.23
0.14
3.41
6.12
7.98
8.98
9.24
8.97
8.34
7.42
6.26
4.89
3.43
2.03
0.86
0.05
-0.37
-0.50
-0.54
-0.71
-1.13
-1.81
-2.59
-3.25
-3.63
-3.72
-3.63
-3.54
-3.58
-3.75
-3.98
-4.19
-4.41
-4.78
-5.51
-6.70
-8.15
-9.39
-9.78
-8.80
-6.30
-2.65
1.44
5.15
7.86
9.37
9.84
9.67
9.24
8.86
8.59
8.41
8.18
7.75
7.01
5.94
4.63
3.26
2.02
1.02
0.23
-0.48
-1.23
-2.03
-2.85
-3.56
-4.12
-4.54
-4.92
-5.29
-5.68
-5.92
-5.89
-5.52
-4.89
-4.24
-3.79
-3.66
-3.72
-3.70
-3.24
-2.13
-0.39
1.67
3.61
5.06
5.86
6.08
5.94
5.68
5.37
4.97
4.40
3.62
2.70
1.83
1.12
0.63
0.30
0.03
-0.23
-0.44
-0.52
-0.39
-0.07
0.34
0.68
0.80
0.67
0.35
-0.07
-0.47
-0.79
-1.00
-1.12
-1.18
-1.25
-1.46
-1.99
-2.98
-4.46
-6.21
-7.78
-8.60
-8.25
-6.59
-3.93
-0.86
1.95
4.03
5.23
5.72
5.79
5.75
5.69
5.58
5.30
4.78
4.09
3.38
2.83
2.52
2.40
2.30
2.04
1.57
0.94
0.29
-0.27
-0.74
-1.24
-1.86
-2.68
-3.65
-4.59
-5.34
-5.77
-5.87
-5.67
-5.25
-4.74
-4.26
-4.03
-4.16
-4.69
-5.42
-5.98
-5.93
-5.03
-3.27
-0.93
1.52
3.65
5.19
6.09
6.42
6.34
5.91
5.19
4.21
3.03
1.80
0.69
-0.12
-0.56
-0.67
-0.62
-0.56
-0.65
-0.87
-1.08
-1.14
-0.92
-0.51
-0.05
0.26
0.29
0.12
-0.12
-0.22
-0.11
0.17
0.41
0.42
0.03
-0.77
-1.92
-3.32
-4.77
-6.07
-6.93
-7.04
-6.21
-4.45
-2.09
0.36
2.39
3.71
4.32
4.48
4.50
4.59
4.79
5.02
5.11
5.01
4.72
4.32
3.91
3.58
3.39
3.31
3.31
3.26
3.04
2.57
1.86
1.06
0.36
-0.04
-0.12
0.02
0.16
0.07
-0.33
-1.00
-1.75
-2.40
-2.84
-3.11
-3.35
-3.70
-4.29
-5.12
-6.11
-7.06
-7.73
-7.87
-7.32
-6.00
-4.04
-1.70
0.72
2.85
4.52
5.61
6.20
6.41
6.39
6.21
5.92
5.51
5.00
4.44
3.89
3.40
3.00
2.62
2.18
1.62
0.96
0.28
-0.32
-0.74
-0.94
-1.02
-1.12
-1.38
-1.91
-2.69
-3.59
-4.41
-4.95
-5.11
-4.90
-4.46
-4.02
-3.80
-3.95
-4.49
-5.28
-6.06
-6.51
-6.30
-5.26
-3.39
-0.92
1.74
4.19
6.11
7.33
7.87
7.81
7.24
6.26
4.98
3.59
2.30
1.32
0.73
0.52
0.54
0.63
0.65
0.55
0.34
0.02
-0.34
-0.70
-0.93
-0.93
-0.65
-0.19
0.24
0.37
0.05
-0.71
-1.74
-2.78
-3.63
-4.22
-4.61
-4.91
-5.22
-5.60
-6.06
-6.61
-7.20
-7.72
-7.94
-7.58
-6.43
-4.49
-1.98
0.73
3.26
5.33
6.86
7.87
8.46
8.68
8.54
8.01
7.20
6.25
5.37
4.74
4.38
4.17
3.91
3.41
2.64
1.74
0.95
0.50
0.43
0.60
0.76
0.70
0.40
-0.02
-0.38
-0.62
-0.84
-1.18
-1.77
-2.64
-3.63
-4.53
-5.14
-5.39
-5.33
-5.15
-5.09
-5.31
-5.87
-6.59
-7.10
-6.98
-5.91
-3.87
-1.14
1.79
4.44
6.51
7.92
8.78
9.21
9.29
9.00
8.32
7.27
5.98
4.61
3.35
2.28
1.44
0.81
0.37
0.12
0.07
0.21
0.44
0.61
0.59
0.31
-0.15
-0.66
-1.06
-1.30
-1.40
-1.47
-1.54
-1.60
-1.58
-1.48
-1.38
-1.38
-1.57
-1.95
-2.41
-2.91
-3.39
-3.91
-4.38
-4.66
-4.50
-3.74
-2.40
-0.77
0.72
1.70
2.04
1.89
1.56
1.31
1.23
1.21
1.06
0.64
-0.03
-0.78
-1.36
-1.62
-1.52
-1.21
-0.83
-0.52
-0.29
-0.05
0.25
0.56
0.72
0.56
0.04
-0.67
-1.32
-1.63
-1.52
-1.13
-0.71
-0.51
-0.65
-1.12
-1.86
-2.78
-3.78
-4.73
-5.38
-5.42
-4.60
-2.86
-0.41
2.33
4.88
6.85
8.03
8.44
8.21
7.52
6.54
5.33
3.99
2.65
1.50
0.71
0.37
0.40
0.54
0.51
0.15
-0.46
-1.04
-1.29
-1.03
-0.37
0.41
0.98
1.09
0.69
-0.12
-1.12
-2.11
-2.92
-3.46
-3.70
-3.71
-3.62
-3.61
-3.86
-4.46
-5.33
-6.24
-6.82
-6.74
-5.79
-3.99
-1.62
0.96
3.35
5.28
6.64
7.45
7.79
7.74
7.39
6.81
6.05
5.21
4.35
3.53
2.79
2.14
1.56
1.05
0.58
0.12
-0.29
-0.61
-0.72
-0.60
-0.27
0.09
0.26
0.07
-0.51
-1.34
-2.12
-2.59
-2.63
-2.34
-2.01
-1.94
-2.42
-3.45
-4.87
-6.29
-7.28
-7.48
-6.71
-5.06
-2.78
-0.27
2.08
3.99
5.34
6.12
6.45
6.47
6.26
5.90
5.40
4.77
4.05
3.29
2.54
1.86
1.28
0.77
0.30
-0.17
-0.63
-1.05
-1.42
-1.73
-2.05
-2.46
-3.05
-3.85
-4.82
-5.83
-6.68
-7.16
-7.13
-6.64
-5.86
-5.11
-4.71
-4.83
-5.41
-6.16
-6.62
-6.32
-5.02
-2.75
0.16
3.15
5.64
7.25
7.81
7.46
6.52
5.39
4.41
3.76
3.47
3.41
3.42
3.32
3.01
2.47
1.77
1.06
0.49
0.25
0.37
0.80
1.30
1.62
1.47
0.80
-0.28
-1.51
-2.57
-3.28
-3.61
-3.69
-3.68
-3.74
-3.93
-4.26
-4.75
-5.40
-6.14
-6.82
-7.11
-6.66
-5.25
-2.89
0.09
3.16
5.83
7.79
9.00
9.57
9.63
9.24
8.45
7.34
6.07
4.92
4.09
3.60
3.30
2.99
2.47
1.72
0.87
0.09
-0.46
-0.74
-0.76
-0.65
-0.55
-0.62
-0.93
-1.50
-2.24
-2.99
-3.59
-3.97
-4.11
-4.07
-3.94
-3.84
-3.88
-4.19
-4.86
-5.83
-6.88
-7.62
-7.67
-6.78
-4.94
-2.42
0.35
2.96
5.12
6.70
7.64
8.01
7.88
7.42
6.79
6.13
5.56
5.07
4.64
4.19
3.66
3.03
2.27
1.39
0.36
-0.71
-1.73
-2.54
-3.05
-3.21
-3.12
-2.88
-2.58
-2.35
-2.18
-2.09
-2.00
-1.91
-1.85
-1.87
-2.07
-2.49
-3.10
-3.80
-4.54
-5.29
-6.05
-6.80
-7.37
-7.50
-6.91
-5.47
-3.27
-0.70
1.80
3.85
5.24
5.99
6.27
6.26
6.12
5.91
5.60
5.13
4.47
3.68
2.92
2.39
2.22
2.37
2.62
2.72
2.49
1.89
1.05
0.18
-0.57
-1.13
-1.56
-1.92
-2.21
-2.38
-2.33
-2.01
-1.46
-0.78
-0.19
0.14
0.08
-0.38
-1.17
-2.16
-3.19
-4.10
-4.68
-4.73
-4.07
-2.63
-0.59
1.70
3.73
5.11
5.70
5.64
5.27
4.94
4.80
4.80
4.73
4.39
3.72
2.79
1.80
0.92
0.23
-0.30
-0.77
-1.25
-1.71
-2.02
-2.05
-1.72
-1.16
-0.59
-0.28
-0.38
-0.85
-1.49
-2.08
-2.51
-2.83
-3.20
-3.78
-4.59
-5.57
-6.56
-7.43
-8.01
-8.15
-7.63
-6.29
-4.03
-1.01
2.37
5.54
7.98
9.36
9.64
9.06
7.97
6.73
5.58
4.61
3.85
3.25
2.76
2.30
1.78
1.10
0.19
-0.98
-2.28
-3.50
-4.38
-4.73
-4.53
-3.88
-3.02
-2.20
-1.62
-1.39
-1.52
-1.88
-2.28
-2.55
-2.52
-2.17
-1.62
-1.13
-1.01
-1.49
-2.60
-4.11
-5.55
-6.37
-6.12
-4.64
-2.10
1.02
4.10
6.61
8.28
9.11
9.34
9.20
8.86
8.34
7.59
6.56
5.31
4.03
2.90
2.06
1.53
1.17
0.85
0.40
-0.21
-0.93
-1.61
-2.13
-2.38
-2.37
-2.21
-2.06
-2.09
-2.39
-2.98
-3.75
-4.56
-5.23
-5.59
-5.63
-5.40
-5.10
-4.95
-5.12
-5.60
-6.21
-6.64
-6.59
-5.85
-4.39
-2.33
0.11
2.68
5.11
7.16
8.61
9.35
9.32
8.66
7.55
6.19
4.76
3.42
2.31
1.54
1.19
1.19
1.36
1.44
1.21
0.63
-0.16
-0.87
-1.26
-1.27
-1.01
-0.73
-0.69
-1.00
-1.62
-2.37
-3.03
-3.41
-3.48
-3.32
-3.12
-3.12
-3.51
-4.33
-5.43
-6.50
-7.11
-6.90
-5.69
-3.59
-0.98
1.64
3.80
5.25
5.99
6.19
6.08
5.81
5.42
4.85
4.08
3.19
2.32
1.70
1.41
1.43
1.60
1.69
1.50
0.99
0.25
-0.51
-1.14
-1.53
-1.73
-1.90
-2.13
-2.46
-2.81
-3.01
-2.93
-2.58
-2.06
-1.56
-1.22
-1.12
-1.28
-1.72
-2.44
-3.39
-4.43
-5.32
-5.71
-5.37
-4.27
-2.56
-0.57
1.43
3.26
4.88
6.24
7.23
7.68
7.44
6.52
5.09
3.46
1.92
0.63
-0.36
-1.08
-1.61
-1.95
-2.10
-2.07
-1.85
-1.45
-0.87
-0.14
0.70
1.52
2.15
2.46
2.41
2.04
1.47
0.84
0.18
-0.48
-1.21
-2.01
-2.89
-3.86
-4.94
-6.17
-7.48
-8.67
-9.36
-9.13
-7.72
-5.17
-1.90
1.40
4.10
5.77
6.39
6.20
5.58
4.84
4.12
3.43
2.78
2.23
1.92
2.01
2.51
3.27
4.03
4.49
4.48
3.99
3.20
2.28
1.40
0.63
-0.04
-0.66
-1.23
-1.78
-2.28
-2.71
-3.05
-3.26
-3.30
-3.13
-2.78
-2.40
-2.19
-2.40
-3.16
-4.48
-6.11
-7.65
-8.60
-8.52
-7.24
-4.92
-1.96
1.06
3.65
5.52
6.66
7.26
7.57
7.81
8.04
8.18
8.12
7.77
7.15
6.36
5.57
4.89
4.38
3.97
3.51
2.94
2.23
1.51
0.96
0.70
0.72
0.86
0.85
0.45
-0.36
-1.45
-2.55
-3.39
-3.89
-4.11
-4.26
-4.53
-5.05
-5.85
-6.89
-8.08
-9.23
-10.08
-10.28
-9.51
-7.62
-4.73
-1.29
2.11
4.92
6.88
7.99
8.49
8.60
8.48
8.11
7.41
6.37
5.12
3.89
2.91
2.28
1.87
1.44
0.72
-0.37
-1.69
-2.90
-3.70
-3.93
-3.63
-3.07
-2.54
-2.23
-2.19
-2.35
-2.56
-2.74
-2.87
-2.94
-3.01
-3.12
-3.34
-3.75
-4.43
-5.33
-6.26
-6.85
-6.67
-5.46
-3.22
-0.30
2.75
5.38
7.26
8.35
8.85
8.97
8.86
8.52
7.91
6.99
5.84
4.64
3.52
2.54
1.67
0.82
-0.07
-0.95
-1.73
-2.31
-2.60
-2.60
-2.37
-2.05
-1.74
-1.52
-1.38
-1.31
-1.26
-1.21
-1.19
-1.24
-1.44
-1.87
-2.55
-3.46
-4.47
-5.39
-5.95
-5.87
-5.01
-3.40
-1.32
0.82
2.60
3.75
4.26
4.30
4.08
3.79
3.51
3.20
2.86
2.47
2.11
1.78
1.47
1.14
0.75
0.30
-0.15
-0.46
-0.59
-0.55
-0.47
-0.47
-0.68
-1.10
-1.66
-2.21
-2.60
-2.72
-2.62
-2.43
-2.30
-2.39
-2.75
-3.37
-4.21
-5.18
-6.19
-7.08
-7.61
-7.46
-6.36
-4.22
-1.23
2.12
5.19
7.38
8.39
8.25
7.29
5.99
4.74
3.77
3.13
2.74
2.55
2.52
2.62
2.82
3.00
3.04
2.86
2.45
1.89
1.33
0.86
0.50
0.19
-0.14
-0.55
-1.03
-1.51
-1.93
-2.25
-2.43
-2.48
-2.43
-2.35
-2.41
-2.78
-3.57
-4.70
-5.86
-6.57
-6.38
-5.13
-3.00
-0.49
1.85
3.64
4.74
5.27
5.42
5.26
4.79
3.98
2.88
1.76
0.88
0.43
0.42
0.66
0.85
0.85
0.63
0.29
0.00
-0.12
-0.08
0.09
0.26
0.34
0.26
0.01
-0.36
-0.72
-0.93
-0.88
-0.59
-0.17
0.14
0.17
-0.16
-0.81
-1.64
-2.55
-3.43
-4.17
-4.61
-4.55
-3.76
-2.12
0.23
2.93
5.45
7.30
8.17
8.05
7.13
5.72
4.10
2.43
0.82
-0.69
-2.05
-3.22
-4.16
-4.88
-5.38
-5.73
-5.97
-6.14
-6.23
-6.22
-6.04
-5.66
-5.14
-4.65
-4.32
-4.26
-4.44
-4.74
-5.00
-5.16
-5.32
-5.70
-6.47
-7.74
-9.46
-11.41
-13.34
-14.96
-16.07
-16.51
-16.19
-15.04
-13.03
-10.09
-6.18
-1.32
4.27
10.16
15.68
20.04
22.55
22.83
20.97
17.44
13.01
8.45
4.41
1.29
-0.77
-1.85
-2.18
-2.09
-1.95
-2.04
-2.49
-3.20
-3.83
-3.80
-2.45
0.83
6.30
13.75
22.39
30.96
38.06
42.45
43.32
40.45
34.04
24.70
13.22
0.68
-11.57
-22.04
-29.35
-32.61
-31.81
-27.76
-21.86
-15.52
-9.69
-4.68
-0.30
3.86
7.93
11.65
14.42
15.57
14.71
11.99
8.00
3.61
-0.36
-3.38
-5.32
-6.35
-6.76
-6.74
-6.31
-5.39
-4.02
-2.41
-0.99
-0.19
-0.21
-0.91
-1.83
-2.45
-2.48
-1.97
-1.30
-0.97
-1.30
-2.28
-3.63
-4.94
-5.87
-6.25
-6.05
-5.26
-3.90
-2.02
0.28
2.73
4.98
6.71
7.70
7.93
7.54
6.67
5.49
4.13
2.79
1.68
1.01
0.90
1.29
1.95
2.56
2.88
2.78
2.34
1.74
1.16
0.71
0.38
0.08
-0.31
-0.79
-1.36
-1.95
-2.54
-3.10
-3.62
-4.08
-4.46
-4.73
-4.93
-5.10
-5.30
-5.54
-5.84
-6.19
-6.49
-6.65
-6.51
-5.89
-4.67
-2.91
-0.84
1.12
2.58
3.30
3.27
2.74
1.98
1.23
0.57
0.01
-0.48
-0.85
-1.03
-0.97
-0.74
-0.40
-0.09
0.16
0.40
0.68
0.96
1.14
1.04
0.54
-0.30
-1.27
-2.08
-2.56
-2.68
-2.62
-2.60
-2.78
-3.22
-3.88
-4.67
-5.52
-6.29
-6.78
-6.74
-5.91
-4.20
-1.82
0.80
3.15
4.81
5.63
5.76
5.52
5.21
4.99
4.88
4.80
4.64
4.34
3.87
3.23
2.42
1.45
0.39
-0.61
-1.35
-1.64
-1.42
-0.78
0.02
0.65
0.87
0.63
0.07
-0.53
-0.90
-0.88
-0.52
-0.03
0.25
0.03
-0.80
-2.16
-3.74
-5.09
-5.75
-5.44
-4.11
-2.00
0.44
2.73
4.45
5.44
5.74
5.60
5.30
5.04
4.86
4.68
4.40
3.96
3.40
2.80
2.24
1.76
1.33
0.88
0.38
-0.13
-0.61
-0.97
-1.23
-1.41
-1.56
-1.73
-1.90
-2.04
-2.08
-2.01
-1.90
-1.86
-2.09
-2.75
-3.86
-5.30
-6.73
-7.78
-8.10
-7.48
-5.95
-3.73
-1.18
1.29
3.33
4.74
5.45
5.56
5.24
4.73
4.18
3.67
3.21
2.76
2.29
1.82
1.39
1.05
0.85
0.77
0.76
0.79
0.82
0.90
1.13
1.52
2.04
2.53
2.76
2.61
2.10
1.34
0.53
-0.21
-0.91
-1.72
-2.83
-4.32
-6.03
-7.64
-8.72
-8.89
-7.92
-5.90
-3.10
0.00
2.90
5.18
6.60
7.12
6.87
6.08
4.99
3.87
2.96
2.37
2.14
2.14
2.17
2.03
1.62
0.95
0.16
-0.56
-1.06
-1.25
-1.18
-0.99
-0.85
-0.93
-1.28
-1.84
-2.40
-2.75
-2.75
-2.44
-2.08
-1.96
-2.34
-3.31
-4.80
-6.55
-8.24
-9.47
-9.88
-9.20
-7.37
-4.58
-1.29
1.94
4.63
6.51
7.58
8.02
8.04
7.78
7.31
6.70
6.02
5.40
4.93
4.63
4.35
3.93
3.21
2.19
1.02
-0.06
-0.81
-1.11
-1.00
-0.70
-0.52
-0.69
-1.35
-2.39
-3.59
-4.59
-5.10
-5.02
-4.45
-3.70
-3.10
-2.94
-3.28
-4.02
-4.84
-5.41
-5.41
-4.63
-3.06
-0.86
1.68
4.20
6.38
8.01
9.01
9.42
9.34
8.90
8.22
7.39
6.51
5.64
4.83
4.10
3.44
2.84
2.25
1.64
1.02
0.48
0.16
0.19
0.57
1.17
1.70
1.90
1.60
0.87
-0.03
-0.84
-1.39
-1.76
-2.15
-2.81
-3.90
-5.43
-7.28
-9.23
-11.00
-12.17
-12.36
-11.26
-8.88
-5.60
-2.07
1.03
3.23
4.46
4.94
5.04
5.02
4.92
4.65
4.09
3.23
2.15
0.95
-0.31
-1.71
-3.33
-5.21
-7.28
-9.30
-10.95
-11.97
-12.24
-11.87
-11.21
-10.76
-10.96
-12.03
-13.87
-16.10
-18.24
-19.88
-20.84
-21.23
-21.35
-21.68
-22.71
-24.87
-28.25
-32.35
-35.89
-37.09
-34.32
-26.90
-15.65
-2.57
9.91
20.03
27.27
32.18
35.72
38.56
40.79
42.30
43.17
43.97
45.45
48.08
51.54
54.89
57.08
57.47
56.24
54.09
51.88
50.15
48.92
47.82
46.28
43.93
40.67
36.70
32.38
27.87
23.05
17.43
10.39
1.44
-9.38
-21.38
-33.36
-43.99
-52.31
-57.92
-61.04
-62.22
-62.00
-60.69
-58.42
-55.28
-51.62
-48.01
-45.24
-44.02
-44.74
-47.32
-51.24
-55.72
-60.07
-63.86
-67.11
-70.26
-74.14
-79.82
-88.55
-101.54
-119.62
-142.71
-169.41
-197.02
-222.25
-242.29
-255.82
-263.48
-267.35
-269.95
-273.07
-277.25
-281.88
-285.87
-288.43
-289.26
-288.50
-286.34
-282.71
-277.35
-270.11
-261.14
-251.04
-240.66
-230.81
-221.94
-213.96
-206.34
-198.36
-189.37
-179.08
-167.56
-155.15
-142.27
-129.24
-116.16
-102.98
-89.63
-76.17
-62.87
-50.23
-38.81
-29.14
-21.46
-15.77
-11.75
-8.93
-6.79
-4.85
-2.78
-0.36
2.55
6.03
10.13
14.88
20.24
26.11
32.28
38.50
44.51
50.05
54.99
59.24
62.84
65.82
68.23
70.08
71.30
71.87
71.77
71.14
70.22
69.34
68.85
68.94
69.61
70.62
71.64
72.35
72.66
72.72
72.92
73.64
75.10
77.17
79.38
81.11
81.87
81.62
80.80
80.25
80.85
83.17
87.15
92.20
97.42
102.05
105.82
109.08
112.67
117.70
125.25
136.16
150.57
167.56
184.81
198.85
205.93
203.41
191.05
171.56
149.87
131.43
120.43
118.49
124.61
136.20
150.35
164.88
178.60
190.98
201.67
210.19
216.00
218.76
218.53
215.83
211.43
206.09
200.27
194.03
187.19
179.46
170.76
161.38
151.89
143.02
135.33
128.95
123.56
118.45
112.79
105.90
97.49
87.70
76.98
65.96
55.18
45.03
35.62
26.82
18.25
9.41
-0.25
-11.19
-23.49
-36.68
-49.57
-60.36
-67.05
-67.89
-62.02
-49.78
-32.61
-12.73
7.51
26.21
42.26
55.34
65.64
73.55
79.35
83.19
85.17
85.54
84.70
83.16
81.32
79.36
77.19
74.59
71.44
67.87
64.17
60.71
57.64
54.82
51.81
48.06
43.16
36.99
29.77
21.99
14.24
6.96
0.31
-5.95
-12.33
-19.51
-28.03
-37.97
-48.80
-59.33
-67.84
-72.58
-72.18
-66.13
-54.91
-39.85
-22.74
-5.37
10.91
25.26
37.32
46.99
54.30
59.31
62.20
63.28
63.08
62.19
61.14
60.25
59.57
58.94
58.11
56.88
55.20
53.18
51.01
48.80
46.54
44.05
41.00
37.05
32.00
25.86
18.92
11.63
4.43
-2.44
-8.99
-15.53
-22.50
-30.32
-39.17
-48.84
-58.62
-67.31
-73.44
-75.62
-73.00
-65.53
-54.01
-39.86
-24.63
-9.65
4.26
16.68
27.50
36.61
43.91
49.24
52.56
53.97
53.80
52.51
50.56
48.35
46.06
43.72
41.22
38.46
35.36
31.97
28.45
24.96
21.63
18.43
15.18
11.60
7.44
2.61
-2.74
-8.30
-13.71
-18.76
-23.51
-28.22
-33.30
-39.12
-45.93
-53.74
-62.29
-70.91
-78.52
-83.69
-84.99
-81.37
-72.59
-59.41
-43.38
-26.38
-10.09
4.45
16.86
27.25
35.84
42.73
47.87
51.16
52.63
52.51
51.23
49.19
46.72
44.00
41.11
38.15
35.26
32.57
30.18
28.07
26.11
24.12
21.92
19.30
16.05
11.98
6.97
1.06
-5.50
-12.32
-18.96
-25.06
-30.50
-35.42
-40.17
-45.23
-51.06
-57.91
-65.63
-73.54
-80.46
-84.90
-85.46
-81.25
-72.18
-58.95
-42.93
-25.70
-8.76
6.70
19.92
30.53
38.50
44.00
47.38
49.01
49.26
48.49
46.99
45.05
42.92
40.74
38.51
36.14
33.52
30.66
27.75
25.05
22.82
21.06
19.51
17.66
14.93
10.97
5.78
-0.26
-6.59
-12.61
-17.98
-22.66
-26.94
-31.34
-36.39
-42.53
-49.89
-58.20
-66.62
-73.87
-78.45
-78.99
-74.72
-65.73
-53.01
-38.10
-22.73
-8.29
4.30
14.67
22.81
28.85
32.98
35.35
36.16
35.67
34.24
32.24
29.97
27.62
25.26
22.89
20.52
18.21
16.09
14.25
12.68
11.16
9.35
6.88
3.46
-0.90
-5.95
-11.30
-16.48
-21.18
-25.37
-29.29
-33.43
-38.35
-44.47
-51.82
-59.80
-67.21
-72.47
-74.05
-70.92
-62.98
-51.03
-36.52
-21.18
-6.47
6.62
17.64
26.50
33.30
38.15
41.19
42.62
42.70
41.81
40.28
38.34
36.08
33.51
30.60
27.44
24.19
21.04
18.13
15.43
12.79
9.91
6.51
2.36
-2.52
-7.97
-13.66
-19.18
-24.26
-28.82
-33.04
-37.34
-42.23
-48.15
-55.19
-62.93
-70.36
-76.05
-78.44
-76.35
-69.38
-58.05
-43.70
-28.03
-12.64
1.33
13.31
23.18
31.02
36.96
41.09
43.53
44.48
44.26
43.19
41.57
39.52
37.10
34.31
31.20
27.92
24.68
21.66
18.93
16.42
13.91
11.08
7.63
3.38
-1.71
-7.41
-13.35
-19.09
-24.25
-28.74
-32.78
-36.90
-41.78
-47.96
-55.52
-63.95
-72.08
-78.31
-81.03
-79.08
-72.09
-60.62
-45.99
-29.87
-13.87
0.82
13.57
24.16
32.63
39.11
43.72
46.59
47.94
48.08
47.38
46.14
44.56
42.62
40.26
37.45
34.27
30.97
27.82
25.01
22.53
20.19
17.65
14.57
10.72
6.02
0.58
-5.29
-11.24
-16.96
-22.29
-27.35
-32.47
-38.10
-44.64
-52.22
-60.55
-68.76
-75.58
-79.51
-79.25
-74.13
-64.31
-50.81
-35.24
-19.33
-4.49
8.39
19.02
27.42
33.68
37.92
40.23
40.83
40.11
38.56
36.66
34.72
32.74
30.54
27.88
24.70
21.17
17.71
14.70
12.32
10.38
8.43
5.89
2.35
-2.32
-7.87
-13.83
-19.68
-25.08
-29.94
-34.47
-39.13
-44.42
-50.74
-58.13
-66.06
-73.41
-78.69
-80.34
-77.26
-69.14
-56.57
-40.92
-23.92
-7.20
8.04
21.18
32.10
40.91
47.80
52.90
56.29
58.08
58.48
57.85
56.56
54.93
53.05
50.84
48.15
44.86
41.01
36.79
32.43
28.12
23.85
19.43
14.55
8.99
2.65
-4.25
-11.30
-17.97
-23.89
-28.93
-33.30
-37.47
-42.04
-47.50
-54.09
-61.62
-69.38
-76.22
-80.72
-81.56
-77.85
-69.48
-57.16
-42.24
-26.30
-10.78
3.36
15.65
25.99
34.48
41.18
46.12
49.28
50.77
50.85
49.94
48.50
46.86
45.12
43.20
40.95
38.30
35.31
32.19
29.18
26.43
23.95
21.57
19.01
15.97
12.21
7.60
2.21
-3.72
-9.81
-15.73
-21.23
-26.30
-31.14
-36.12
-41.60
-47.88
-55.02
-62.72
-70.20
-76.27
-79.52
-78.70
-73.17
-63.10
-49.55
-34.10
-18.38
-3.71
9.16
19.95
28.66
35.36
40.10
42.91
43.97
43.59
42.26
40.45
38.54
36.68
34.82
32.81
30.50
27.85
24.96
21.99
19.13
16.42
13.76
10.94
7.70
3.88
-0.51
-5.29
-10.17
-14.88
-19.32
-23.59
-27.93
-32.69
-38.22
-44.74
-52.21
-60.26
-68.00
-74.17
-77.32
-76.25
-70.40
-60.08
-46.40
-30.97
-15.41
-0.98
11.62
22.17
30.65
37.12
41.60
44.16
45.00
44.50
43.13
41.33
39.39
37.41
35.32
33.00
30.36
27.41
24.26
21.08
18.08
15.37
12.85
10.23
7.12
3.18
-1.70
-7.28
-13.09
-18.65
-23.65
-28.20
-32.71
-37.75
-43.84
-51.21
-59.61
-68.25
-75.85
-80.86
-81.82
-77.81
-68.76
-55.54
-39.71
-23.05
-7.11
7.14
19.31
29.43
37.64
44.01
48.55
51.27
52.35
52.14
51.13
49.74
48.23
46.60
44.70
42.31
39.37
36.01
32.53
29.26
26.41
23.90
21.43
18.55
14.88
10.25
4.75
-1.25
-7.29
-12.97
-18.06
-22.60
-26.86
-31.28
-36.36
-42.49
-49.78
-57.88
-65.87
-72.38
-75.85
-74.94
-69.04
-58.48
-44.47
-28.73
-13.03
1.28
13.51
23.53
31.58
37.94
42.83
46.28
48.31
49.00
48.54
47.27
45.47
43.31
40.77
37.76
34.19
30.18
26.09
22.34
19.27
16.93
15.02
12.94
10.09
6.08
0.91
-5.02
-11.11
-16.84
-21.96
-26.60
-31.14
-36.04
-41.65
-48.12
-55.36
-62.95
-70.18
-75.98
-79.13
-78.52
-73.46
-64.01
-51.01
-35.86
-20.14
-5.22
7.95
18.91
27.56
34.00
38.44
41.11
42.26
42.17
41.11
39.34
37.05
34.36
31.42
28.36
25.34
22.54
20.01
17.73
15.52
13.08
10.08
6.32
1.77
-3.38
-8.75
-13.98
-18.81
-23.24
-27.56
-32.31
-38.00
-44.89
-52.70
-60.58
-67.17
-70.93
-70.60
-65.58
-56.07
-43.10
-28.13
-12.75
1.73
14.45
25.03
33.42
39.78
44.30
47.21
48.69
48.99
48.37
47.10
45.39
43.33
40.85
37.87
34.36
30.51
26.68
23.25
20.41
18.01
15.60
12.65
8.80
4.01
-1.42
-7.04
-12.45
-17.48
-22.17
-26.76
-31.55
-36.92
-43.16
-50.35
-58.20
-65.88
-72.08
-75.28
-74.24
-68.45
-58.27
-44.89
-29.86
-14.69
-0.42
12.40
23.58
33.09
40.88
46.81
50.80
52.90
53.37
52.63
51.11
49.15
46.88
44.31
41.37
38.04
34.40
30.61
26.87
23.37
20.17
17.19
14.22
10.97
7.18
2.71
-2.39
-7.83
-13.28
-18.45
-23.24
-27.83
-32.53
-37.79
-43.95
-51.14
-59.06
-66.91
-73.43
-77.11
-76.66
-71.39
-61.52
-48.15
-32.93
-17.54
-3.25
9.27
19.82
28.46
35.22
40.08
42.98
44.03
43.59
42.16
40.29
38.35
36.44
34.43
32.19
29.65
26.95
24.33
21.98
19.91
17.90
15.60
12.66
8.89
4.31
-0.89
-6.38
-11.88
-17.19
-22.30
-27.42
-32.92
-39.21
-46.53
-54.71
-63.08
-70.49
-75.60
-77.18
-74.49
-67.42
-56.60
-43.19
-28.66
-14.39
-1.40
9.82
19.33
27.45
34.55
40.73
45.82
49.44
51.35
51.53
50.35
48.34
46.00
43.67
41.46
39.42
37.63
36.28
35.56
35.47
35.67
35.44
33.91
30.33
24.40
16.38
6.98
-2.94
-12.65
-21.72
-30.08
-37.90
-45.48
-53.15
-61.10
-69.21
-76.96
-83.32
-86.98
-86.71
-81.71
-72.01
-58.46
-42.53
-25.82
-9.72
4.87
17.51
28.11
36.71
43.36
48.12
51.05
52.36
52.39
51.58
50.33
48.86
47.13
45.01
42.34
39.16
35.74
32.48
29.68
27.38
25.27
22.86
19.66
15.44
10.30
4.65
-1.01
-6.32
-11.16
-15.71
-20.26
-25.20
-30.81
-37.28
-44.55
-52.23
-59.53
-65.28
-68.14
-67.02
-61.41
-51.64
-38.78
-24.33
-9.85
3.44
14.75
23.74
30.37
34.84
37.46
38.60
38.58
37.65
35.95
33.62
30.81
27.76
24.72
21.90
19.43
17.34
15.58
14.07
12.64
11.00
8.78
5.61
1.29
-4.04
-9.95
-15.80
-20.97
-25.22
-28.74
-32.11
-36.14
-41.49
-48.34
-56.26
-64.13
-70.42
-73.55
-72.35
-66.35
-55.98
-42.34
-26.98
-11.42
3.11
15.84
26.45
34.90
41.33
45.92
48.91
50.58
51.21
51.04
50.20
48.71
46.50
43.52
39.87
35.85
31.87
28.34
25.52
23.40
21.65
19.72
17.03
13.08
7.62
0.81
-6.90
-14.85
-22.45
-29.31
-35.45
-41.18
-47.03
-53.46
-60.68
-68.49
-76.21
-82.68
-86.56
-86.56
-81.89
-72.54
-59.38
-43.85
-27.60
-11.97
2.25
14.80
25.73
35.09
42.78
48.65
52.59
54.73
55.39
55.00
53.94
52.39
50.44
48.07
45.30
42.26
39.13
36.07
33.17
30.39
27.55
24.41
20.70
16.29
11.19
5.61
-0.12
-5.68
-10.87
-15.76
-20.57
-25.73
-31.64
-38.58
-46.49
-54.98
-63.19
-69.93
-73.86
-73.83
-69.21
-60.12
-47.44
-32.58
-17.11
-2.37
10.71
21.68
30.45
37.14
41.91
44.99
46.62
47.04
46.50
45.20
43.26
40.76
37.75
34.35
30.74
27.14
23.79
20.83
18.24
15.83
13.27
10.25
6.56
2.18
-2.70
-7.78
-12.77
-17.49
-21.96
-26.44
-31.35
-37.13
-44.00
-51.78
-59.67
-66.35
-70.29
-70.14
-65.26
-55.90
-43.14
-28.55
-13.62
0.52
13.21
24.23
33.49
40.90
46.35
49.79
51.33
51.33
50.25
48.56
46.55
44.33
41.86
39.07
35.98
32.72
29.54
26.66
24.19
21.98
19.65
16.72
12.79
7.75
1.76
-4.72
-11.19
-17.25
-22.74
-27.77
-32.64
-37.75
-43.53
-50.27
-57.91
-65.95
-73.31
-78.54
-80.19
-77.24
-69.51
-57.67
-43.07
-27.31
-11.83
2.36
14.73
25.12
33.54
40.01
44.54
47.21
48.25
48.08
47.22
46.12
45.06
44.02
42.81
41.25
39.30
37.09
34.86
32.76
30.81
28.79
26.39
23.33
19.44
14.70
9.27
3.42
-2.56
-8.36
-13.79
-18.86
-23.73
-28.74
-34.27
-40.65
-47.94
-55.86
-63.64
-70.10
-73.88
-73.75
-69.03
-59.84
-47.10
-32.28
-17.00
-2.63
10.00
20.55
29.06
35.69
40.60
43.92
45.75
46.28
45.74
44.41
42.56
40.38
37.95
35.31
32.47
29.51
26.55
23.71
21.03
18.48
15.89
13.01
9.63
5.56
0.79
-4.51
-10.03
-15.40
-20.35
-24.81
-29.01
-33.46
-38.70
-45.10
-52.52
-60.19
-66.80
-70.85
-71.04
-66.74
-58.09
-45.94
-31.58
-16.37
-1.49
12.18
24.10
33.97
41.71
47.37
51.08
52.98
53.20
51.88
49.29
45.85
42.08
38.43
35.05
31.77
28.21
24.02
19.13
13.78
8.38
3.24
-1.53
-6.08
-10.56
-15.02
-19.29
-23.14
-26.45
-29.41
-32.53
-36.52
-42.03
-49.36
-58.36
-68.21
-77.61
-84.87
-88.36
-86.90
-80.07
-68.38
-53.10
-35.96
-18.65
-2.47
11.89
24.26
34.75
43.53
50.63
55.96
59.41
61.03
61.11
60.09
58.43
56.45
54.22
51.67
48.66
45.20
41.48
37.80
34.43
31.46
28.71
25.82
22.34
17.94
12.55
6.37
-0.18
-6.62
-12.65
-18.14
-23.26
-28.33
-33.71
-39.72
-46.57
-54.21
-62.28
-69.93
-75.92
-78.82
-77.43
-71.21
-60.57
-46.73
-31.38
-16.13
-2.06
10.35
21.11
30.38
38.24
44.61
49.32
52.27
53.55
53.44
52.32
50.50
48.17
45.40
42.22
38.70
35.00
31.37
28.04
25.18
22.75
20.50
18.05
15.01
11.11
6.28
0.73
-5.21
-11.10
-16.63
-21.67
-26.35
-30.98
-35.96
-41.64
-48.20
-55.42
-62.63
-68.74
-72.44
-72.54
-68.34
-59.88
-47.95
-33.86
-19.10
-4.92
7.88
18.93
28.13
35.52
41.10
44.86
46.86
47.31
46.56
45.07
43.25
41.36
39.47
37.48
35.25
32.63
29.56
26.03
22.02
17.51
12.49
7.04
1.40
-4.10
-9.13
-13.56
-17.62
-21.85
-26.94
-33.40
-41.33
-50.33
-59.60
-68.11
-74.77
-78.54
-78.54
-74.16
-65.31
-52.59
-37.28
-21.13
-5.92
7.00
17.00
24.19
29.18
32.69
35.28
37.19
38.42
38.86
38.51
37.47
35.97
34.22
32.35
30.39
28.33
26.21
24.13
22.22
20.49
18.79
16.80
14.17
10.61
6.10
0.82
-4.87
-10.57
-15.94
-20.80
-25.16
-29.30
-33.71
-38.92
-45.32
-52.89
-61.02
-68.51
-73.88
-75.72
-73.15
-66.08
-55.19
-41.71
-27.07
-12.57
0.87
12.66
22.53
30.44
36.45
40.72
43.49
45.02
45.62
45.58
45.08
44.25
43.12
41.68
39.98
38.07
36.07
34.11
32.21
30.26
28.04
25.25
21.68
17.23
12.00
6.23
0.25
-5.64
-11.22
-16.49
-21.57
-26.79
-32.55
-39.24
-47.02
-55.68
-64.43
-72.04
-77.01
-77.96
-74.13
-65.55
-53.09
-38.18
-22.42
-7.20
6.52
18.21
27.74
35.16
40.65
44.43
46.69
47.66
47.55
46.53
44.74
42.30
39.32
35.94
32.39
28.91
25.76
23.12
20.97
19.13
17.25
14.95
11.97
8.24
3.89
-0.79
-5.50
-10.05
-14.42
-18.81
-23.60
-29.23
-36.02
-43.93
-52.31
-59.93
-65.20
-66.57
-63.12
-54.83
-42.61
-28.00
-12.69
1.91
14.90
25.80
34.48
40.99
45.43
47.99
48.94
48.60
47.30
45.31
42.79
39.84
36.54
33.03
29.53
26.28
23.45
21.08
18.98
16.73
13.88
10.08
5.25
-0.42
-6.47
-12.42
-17.91
-22.82
-27.40
-32.18
-37.83
-44.86
-53.32
-62.58
-71.33
-77.85
-80.51
-78.28
-71.02
-59.55
-45.31
-29.95
-14.92
-1.20
10.69
20.67
28.86
35.47
40.64
44.42
46.79
47.66
46.99
44.89
41.64
37.67
33.56
29.83
26.81
24.59
22.95
21.46
19.69
17.33
14.27
10.63
6.61
2.44
-1.75
-5.94
-10.20
-14.68
-19.60
-25.22
-31.75
-39.17
-47.07
-54.54
-60.24
-62.74
-60.92
-54.38
-43.63
-29.89
-14.73
0.42
14.52
27.09
37.95
47.02
54.21
59.32
62.26
63.17
62.43
60.63
58.29
55.77
53.16
50.35
47.25
43.84
40.25
36.68
33.26
29.93
26.44
22.46
17.73
12.16
5.91
-0.68
-7.19
-13.30
-18.84
-23.88
-28.69
-33.71
-39.38
-45.94
-53.15
-60.21
-65.79
-68.35
-66.63
-60.13
-49.28
-35.32
-19.91
-4.62
9.44
21.65
31.81
39.96
46.18
50.58
53.28
54.49
54.49
53.56
51.93
49.78
47.19
44.24
41.04
37.74
34.51
31.43
28.46
25.33
21.72
17.35
12.13
6.30
0.29
-5.40
-10.38
-14.59
-18.27
-21.99
-26.43
-32.20
-39.50
-47.94
-56.43
-63.40
-67.21
-66.63
-61.30
-51.79
-39.42
-25.76
-12.24
0.12
10.78
19.50
26.24
31.00
33.82
34.82
34.22
32.30
29.41
25.88
22.06
18.28
14.81
11.86
9.51
7.66
6.09
4.47
2.45
-0.19
-3.54
-7.47
-11.76
-16.16
-20.54
-24.97
-29.66
-34.96
-41.15
-48.20
-55.63
-62.46
-67.33
-68.89
-66.18
-59.00
-47.98
-34.41
-19.88
-5.78
6.92
17.73
26.53
33.37
38.36
41.55
43.05
43.06
41.81
39.59
36.69
33.37
29.81
26.20
22.68
19.36
16.27
13.34
10.46
7.46
4.20
0.61
-3.28
-7.37
-11.53
-15.73
-20.09
-24.85
-30.37
-36.93
-44.44
-52.36
-59.60
-64.71
-66.28
-63.33
-55.68
-44.04
-29.77
-14.51
0.21
13.33
24.31
33.07
39.75
44.54
47.61
49.11
49.20
48.11
46.08
43.35
40.15
36.68
33.16
29.75
26.52
23.46
20.41
17.16
13.51
9.39
4.81
-0.13
-5.29
-10.53
-15.76
-20.88
-25.95
-31.17
-36.94
-43.59
-51.16
-59.08
-66.12
-70.64
-71.09
-66.53
-57.01
-43.61
-28.04
-12.16
2.49
14.99
24.99
32.50
37.77
41.14
42.96
43.68
43.75
43.47
42.91
41.80
39.66
36.10
31.12
25.26
19.47
14.77
11.79
10.52
10.33
10.23
9.31
7.04
3.38
-1.33
-6.54
-11.73
-16.56
-20.99
-25.27
-29.92
-35.50
-42.26
-49.89
-57.36
-63.12
-65.55
-63.54
-56.81
-46.09
-32.73
-18.31
-4.22
8.62
19.67
28.72
35.70
40.61
43.57
44.81
44.69
43.62
41.96
39.97
37.73
35.23
32.43
29.31
25.95
22.48
19.02
15.63
12.20
8.56
4.54
0.05
-4.82
-9.89
-14.97
-20.01
-25.09
-30.49
-36.53
-43.42
-51.07
-58.93
-65.95
-70.75
-71.95
-68.58
-60.48
-48.32
-33.54
-17.83
-2.70
10.82
22.31
31.76
39.30
45.04
49.00
51.18
51.69
50.75
48.69
45.90
42.73
39.40
36.06
32.82
29.77
26.97
24.39
21.88
19.12
15.78
11.60
6.59
1.03
-4.68
-10.19
-15.36
-20.35
-25.51
-31.23
-37.82
-45.30
-53.35
-61.25
-67.84
-71.75
-71.72
-67.01
-57.71
-44.74
-29.61
-13.92
1.00
14.34
25.75
35.16
42.59
48.02
51.50
53.16
53.34
52.45
50.92
49.04
46.90
44.47
41.68
38.53
35.13
31.68
28.40
25.43
22.76
20.19
17.38
13.97
9.72
4.65
-0.98
-6.70
-12.08
-16.90
-21.28
-25.65
-30.56
-36.47
-43.52
-51.41
-59.36
-66.26
-70.83
-71.92
-68.79
-61.34
-50.14
-36.35
-21.34
-6.45
7.29
19.26
29.16
36.95
42.70
46.50
48.49
48.88
47.96
46.06
43.52
40.62
37.51
34.26
30.92
27.60
24.45
21.63
19.19
16.98
14.67
11.79
7.98
3.11
-2.62
-8.72
-14.61
-19.84
-24.27
-28.15
-32.07
-36.66
-42.40
-49.34
-56.93
-64.15
-69.63
-72.01
-70.28
-64.08
-53.78
-40.42
-25.42
-10.26
3.84
16.17
26.44
34.70
41.06
45.62
48.44
49.65
49.48
48.30
46.50
44.36
41.95
39.24
36.16
32.83
29.53
26.58
24.16
22.15
20.09
17.45
13.79
8.98
3.27
-2.88
-8.94
-14.56
-19.63
-24.33
-29.12
-34.52
-41.00
-48.66
-57.06
-65.18
-71.58
-74.72
-73.45
-67.36
-56.89
-43.24
-27.91
-12.42
2.04
14.77
25.42
33.96
40.50
45.17
48.12
49.54
49.64
48.74
47.15
45.15
42.95
40.60
38.06
35.24
32.13
28.80
25.44
22.24
19.28
16.44
13.45
9.91
5.56
0.32
-5.55
-11.59
-17.32
-22.42
-26.90
-31.03
-35.30
-40.21
-46.15
-53.16
-60.88
-68.45
-74.55
-77.70
-76.63
-70.68
-60.11
-46.04
-30.14
-14.12
0.69
13.59
24.39
33.23
40.25
45.58
49.21
51.25
51.87
51.39
50.15
48.45
46.49
44.27
41.77
38.96
35.90
32.70
29.58
26.67
24.02
21.47
18.71
15.41
11.32
6.41
0.85
-5.03
-10.85
-16.34
-21.38
-26.03
-30.50
-35.12
-40.28
-46.31
-53.34
-61.06
-68.63
-74.76
-77.99
-77.16
-71.74
-62.07
-49.17
-34.47
-19.35
-4.91
8.16
19.45
28.71
35.79
40.64
43.37
44.28
43.83
42.57
40.92
39.16
37.34
35.37
33.10
30.46
27.55
24.59
21.85
19.44
17.27
14.96
12.02
8.12
3.23
-2.36
-8.11
-13.51
-18.31
-22.57
-26.69
-31.21
-36.66
-43.35
-51.24
-59.79
-67.92
-74.11
-76.79
-74.77
-67.64
-56.01
-41.30
-25.28
-9.57
4.77
17.30
28.00
37.03
44.48
50.31
54.42
56.80
57.58
57.10
55.75
53.92
51.83
49.52
46.91
43.89
40.46
36.79
33.16
29.86
27.01
24.46
21.82
18.61
14.48
9.37
3.49
-2.66
-8.63
-14.13
-19.15
-23.96
-28.95
-34.48
-40.85
-48.15
-56.17
-64.33
-71.60
-76.62
-77.99
-74.69
-66.54
-54.24
-39.22
-23.24
-7.80
6.11
18.09
28.13
36.36
42.84
47.57
50.54
51.85
51.79
50.73
49.05
46.99
44.66
42.03
39.12
35.99
32.85
29.94
27.40
25.21
23.09
20.64
17.38
13.03
7.56
1.23
-5.44
-11.93
-17.83
-23.03
-27.69
-32.28
-37.33
-43.33
-50.49
-58.59
-66.86
-74.03
-78.59
-79.21
-75.12
-66.42
-53.99
-39.24
-23.69
-8.62
5.11
16.99
26.81
34.51
40.14
43.83
45.85
46.58
46.40
45.66
44.58
43.23
41.55
39.44
36.92
34.15
31.40
28.91
26.76
24.76
22.49
19.50
15.45
10.30
4.30
-2.12
-8.46
-14.39
-19.74
-24.63
-29.40
-34.56
-40.67
-48.06
-56.55
-65.32
-72.89
-77.56
-77.87
-73.09
-63.45
-50.06
-34.50
-18.37
-2.94
11.00
23.03
33.01
40.91
46.75
50.63
52.74
53.42
53.08
52.17
51.01
49.77
48.35
46.55
44.21
41.39
38.38
35.58
33.30
31.53
29.86
27.69
24.51
20.14
14.80
9.02
3.30
-2.07
-7.18
-12.34
-17.98
-24.41
-31.79
-40.13
-49.18
-58.38
-66.77
-73.01
-75.71
-73.78
-66.91
-55.70
-41.55
-26.18
-11.18
2.37
13.96
23.50
31.13
37.01
41.24
43.95
45.22
45.26
44.32
42.72
40.70
38.41
35.88
33.08
30.04
26.91
23.94
21.34
19.11
16.97
14.44
11.06
6.60
1.17
-4.79
-10.78
-16.36
-21.37
-25.95
-30.43
-35.27
-40.89
-47.54
-55.12
-63.09
-70.38
-75.60
-77.34
-74.66
-67.37
-56.18
-42.41
-27.68
-13.41
-0.56
10.36
19.19
25.95
30.70
33.60
34.88
34.88
33.93
32.35
30.32
27.94
25.30
22.51
19.78
17.33
15.30
13.68
12.23
10.54
8.21
5.02
0.99
-3.63
-8.45
-13.16
-17.64
-22.00
-26.57
-31.77
-37.98
-45.35
-53.56
-61.73
-68.48
-72.23
-71.61
-65.97
-55.59
-41.60
-25.67
-9.47
5.67
18.94
30.01
38.84
45.56
50.39
53.57
55.40
56.15
56.06
55.30
53.96
52.08
49.73
46.98
43.98
40.93
37.99
35.28
32.75
30.16
27.17
23.40
18.65
13.01
6.79
0.48
-5.50
-10.94
-15.91
-20.77
-26.05
-32.24
-39.53
-47.61
-55.53
-61.80
-64.78
-63.21
-56.64
-45.63
-31.53
-16.05
-0.68
13.57
26.26
37.22
46.35
53.46
58.34
60.97
61.62
60.89
59.43
57.71
55.81
53.46
50.23
45.89
40.60
34.89
29.43
24.70
20.75
17.26
13.70
9.63
4.92
-0.27
-5.59
-10.69
-15.38
-19.63
-23.56
-27.46
-31.67
-36.56
-42.41
-49.25
-56.65
-63.66
-68.92
-70.97
-68.72
-61.79
-50.69
-36.71
-21.44
-6.43
7.22
18.89
28.35
35.53
40.38
42.91
43.25
41.75
39.00
35.64
32.21
29.00
25.98
22.97
19.79
16.42
13.07
10.08
7.73
6.03
4.71
3.25
1.17
-1.83
-5.67
-10.01
-14.37
-18.38
-21.92
-25.20
-28.66
-32.80
-38.00
-44.29
-51.16
-57.57
-62.06
-63.20
-59.98
-52.20
-40.59
-26.51
-11.57
2.85
15.86
27.02
36.17
43.23
48.11
50.87
51.71
51.14
49.76
48.08
46.37
44.58
42.48
39.86
36.71
33.27
29.96
27.25
25.33
24.14
23.19
21.78
19.16
14.86
8.80
1.39
-6.62
-14.44
-21.49
-27.59
-32.94
-38.00
-43.26
-49.03
-55.22
-61.32
-66.42
-69.38
-69.05
-64.69
-56.19
-44.20
-30.04
-15.31
-1.47
10.47
20.09
27.44
32.78
36.38
38.41
38.93
38.07
36.04
33.17
29.81
26.22
22.53
18.82
15.15
11.68
8.60
6.02
3.91
2.02
-0.03
-2.63
-6.01
-10.14
-14.76
-19.47
-23.92
-27.91
-31.52
-35.08
-39.06
-43.94
-49.86
-56.50
-62.91
-67.70
-69.39
-66.87
-59.82
-48.88
-35.45
-21.27
-7.92
3.60
12.91
20.09
25.42
29.12
31.33
32.17
31.86
30.75
29.24
27.66
26.20
24.89
23.64
22.40
21.14
19.90
18.66
17.39
15.90
14.05
11.67
8.70
5.16
1.07
-3.54
-8.67
-14.40
-20.87
-28.22
-36.52
-45.61
-54.87
-63.24
-69.30
-71.70
-69.54
-62.79
-52.27
-39.43
-25.81
-12.68
-0.73
9.89
19.29
27.68
35.09
41.42
46.40
49.80
51.42
51.27
49.61
46.88
43.71
40.71
38.38
37.00
36.58
36.83
37.17
36.89
35.23
31.65
26.03
18.82
10.90
3.33
-3.00
-7.68
-10.98
-13.66
-16.75
-21.09
-27.04
-34.17
-41.26
-46.63
-48.51
-45.73
-38.05
-26.33
-12.22
2.37
15.86
27.26
36.24
42.83
47.13
49.20
49.10
47.03
43.41
38.78
33.66
28.38
23.00
17.42
11.54
5.32
-1.15
-7.70
-14.19
-20.48
-26.49
-32.12
-37.30
-41.94
-45.92
-49.15
-51.56
-53.27
-54.58
-56.01
-58.08
-61.06
-64.57
-67.54
-68.46
-65.89
-59.08
-48.18
-34.28
-18.90
-3.52
10.79
23.51
34.45
43.53
50.70
55.90
59.17
60.70
60.81
59.84
58.00
55.42
52.20
48.50
44.60
40.82
37.41
34.42
31.64
28.71
25.27
21.13
16.28
10.93
5.37
-0.16
-5.51
-10.73
-16.04
-21.81
-28.39
-35.98
-44.31
-52.53
-59.29
-63.05
-62.51
-57.08
-47.07
-33.61
-18.33
-2.93
11.22
23.24
32.80
39.96
45.02
48.37
50.36
51.25
51.19
50.28
48.61
46.31
43.54
40.49
37.36
34.34
31.60
29.26
27.33
25.67
23.99
21.95
19.28
15.89
11.92
7.61
3.18
-1.37
-6.26
-11.91
-18.67
-26.61
-35.25
-43.54
-50.03
-53.21
-51.94
-45.86
-35.50
-22.22
-7.78
6.08
18.08
27.56
34.44
39.00
41.69
42.90
42.93
42.00
40.30
38.00
35.29
32.37
29.37
26.41
23.55
20.82
18.20
15.64
13.11
10.50
7.69
4.58
1.10
-2.77
-6.97
-11.43
-16.05
-20.84
-25.91
-31.39
-37.33
-43.50
-49.22
-53.44
-54.94
-52.72
-46.40
-36.39
-23.89
-10.49
2.19
12.95
21.18
26.80
30.12
31.54
31.40
29.94
27.34
23.91
20.06
16.31
13.08
10.58
8.70
7.07
5.33
3.23
0.73
-2.02
-4.82
-7.60
-10.37
-13.23
-16.26
-19.49
-22.94
-26.76
-31.14
-36.30
-42.26
-48.62
-54.49
-58.57
-59.52
-56.39
-48.94
-37.79
-24.27
-10.03
3.40
14.95
24.12
30.89
35.45
38.06
38.95
38.31
36.37
33.46
30.02
26.44
23.09
20.15
17.67
15.56
13.67
11.83
9.90
7.73
5.23
2.34
-0.93
-4.54
-8.41
-12.48
-16.72
-21.16
-25.96
-31.34
-37.51
-44.45
-51.75
-58.45
-63.21
-64.65
-61.84
-54.61
-43.70
-30.51
-16.71
-3.76
7.35
16.16
22.64
26.95
29.35
30.08
29.41
27.56
24.81
21.46
17.83
14.25
11.02
8.36
6.36
4.98
4.09
3.46
2.84
1.98
0.66
-1.25
-3.74
-6.68
-9.82
-12.99
-16.17
-19.61
-23.76
-29.01
-35.42
-42.44
-48.89
-53.19
-53.79
-49.73
-40.93
-28.36
-13.72
1.06
14.35
25.26
33.78
40.58
46.63
52.76
59.33
66.16
72.67
78.07
81.72
83.40
83.43
82.59
82.04
82.85
85.82
91.23
98.86
108.11
118.22
128.37
137.76
145.61
151.25
154.19
154.27
151.72
147.00
140.58
132.68
123.16
111.70
98.16
82.91
67.05
52.19
40.04
31.81
27.97
27.87
29.98
32.22
32.42
28.92
21.03
9.42
-3.99
-16.68
-26.53
-32.61
-35.45
-36.49
-37.04
-37.41
-36.68
-33.33
-26.28
-15.73
-3.19
9.13
19.33
26.40
30.28
31.32
29.78
25.61
18.90
10.25
0.99
-7.27
-13.32
-17.12
-19.99
-23.98
-30.93
-41.55
-55.00
-69.39
-82.60
-93.20
-100.82
-105.98
-109.58
-112.32
-114.51
-116.24
-117.66
-119.16
-121.18
-123.88
-126.83
-129.04
-129.34
-127.03
-122.29
-116.25
-110.39
-105.80
-102.56
-99.67
-95.56
-88.91
-79.31
-67.45
-54.83
-43.05
-33.32
-26.20
-21.86
-20.29
-21.53
-25.53
-31.87
-39.61
-47.50
-54.38
-59.67
-63.46
-66.27
-68.47
-69.81
-69.42
-66.20
-59.42
-49.23
-36.61
-23.05
-9.93
1.80
11.62
19.19
24.20
26.32
25.46
22.01
16.96
11.69
7.56
5.46
5.63
7.76
11.18
15.21
19.31
23.13
26.48
29.27
31.45
32.98
33.84
33.96
33.26
31.72
29.34
26.30
22.84
19.25
15.71
12.23
8.71
5.14
1.70
-1.11
-2.63
-2.31
-0.01
3.87
8.46
12.84
16.31
18.64
19.99
20.60
20.53
19.51
17.07
12.85
6.82
-0.61
-8.74
-16.87
-24.55
-31.72
-38.61
-45.53
-52.61
-59.70
-66.24
-71.52
-74.86
-75.91
-74.80
-72.21
-69.28
-67.32
-67.55
-70.76
-77.09
-85.86
-95.62
-104.29
-109.55
-109.35
-102.46
-88.88
-69.93
-47.92
-25.54
-5.23
11.42
23.75
31.89
36.42
38.03
37.34
34.93
31.45
27.66
24.29
21.90
20.63
20.13
19.67
18.46
15.93
11.94
6.84
1.23
-4.26
-9.26
-13.74
-18.00
-22.53
-27.84
-34.31
-42.11
-51.08
-60.60
-69.50
-76.15
