1694472504.00
64.000000
-0.00
-0.00
-0.00
-0.00
-0.00
-0.00
-0.00
-0.00
-0.00
-0.00
0.00
0.01
0.01
-0.00
-0.03
-0.05
-0.05
0.00
0.13
0.36
0.66
1.01
1.37
1.72
2.06
2.40
2.79
3.24
3.80
4.42
5.06
5.66
6.20
6.68
7.15
7.68
8.31
9.14
10.09
11.04
11.88
12.56
13.14
13.76
14.65
15.96
17.91
20.32
22.90
25.38
27.58
29.57
31.68
34.32
37.81
42.54
48.15
54.10
59.83
64.97
69.58
74.14
79.34
85.71
93.76
103.00
112.62
121.73
129.77
136.75
143.30
150.75
157.77
166.64
177.95
191.79
206.97
220.57
228.25
225.36
208.53
176.87
132.76
80.05
23.07
-34.94
-92.44
-149.16
-205.23
-260.37
-313.74
-363.87
-409.83
-450.91
-486.50
-515.74
-537.23
-549.22
-549.96
-538.37
-514.21
-478.67
-433.88
-382.45
-327.02
-269.84
-212.63
-156.66
-102.95
-52.37
-5.90
35.58
71.43
101.35
125.50
144.38
158.69
169.15
176.37
180.75
182.57
182.07
179.51
175.23
169.65
163.18
156.15
148.81
141.30
133.69
126.02
118.33
110.69
103.16
95.80
88.68
81.83
75.25
68.95
62.95
57.25
51.86
46.78
42.03
37.59
33.45
29.61
26.07
22.81
19.83
17.11
14.67
12.48
10.54
8.83
7.35
6.07
4.97
4.05
3.27
2.62
2.09
1.65
1.30
1.01
0.79
0.61
0.47
0.37
0.29
0.23
0.19
0.16
0.15
0.15
0.15
0.17
0.19
0.22
0.25
0.29
0.33
0.37
0.42
0.47
0.51
0.56
0.61
0.67
0.72
0.78
0.85
0.92
1.00
1.09
1.19
1.30
1.42
1.56
1.72
1.89
2.08
2.30
2.54
2.80
3.09
3.41
3.76
4.14
4.56
5.01
5.50
6.03
6.59
7.20
7.85
8.55
9.29
10.07
10.90
11.78
12.70
13.67
14.70
15.79
16.94
18.17
19.42
20.71
21.97
23.12
24.09
24.74
24.97
24.64
23.67
21.99
19.59
16.50
12.78
8.61
4.16
-0.36
-4.75
-8.78
-12.30
-15.16
-17.29
-18.66
-19.30
-19.27
-18.67
-17.63
-16.23
-14.59
-12.81
-10.98
-9.16
-7.37
-5.63
-3.96
-2.31
-0.62
1.11
2.92
4.80
6.77
8.86
11.00
13.17
15.41
17.77
20.25
22.86
25.57
28.37
31.38
34.41
37.48
40.65
44.03
47.65
51.45
55.29
59.11
62.96
66.59
70.05
73.58
77.41
81.57
85.92
90.12
93.82
96.94
99.03
100.13
100.47
100.23
99.11
96.23
89.99
78.10
62.92
45.17
25.73
5.59
-14.39
-33.81
-52.70
-71.46
-90.70
-111.02
-133.69
-159.41
-187.87
-217.27
-244.30
-264.73
-274.78
-272.54
-258.66
-236.67
-210.94
-185.24
-161.71
-140.80
-122.03
-104.81
-89.01
-74.79
-62.54
-52.07
-42.69
-33.63
-24.45
-15.31
-6.76
0.49
6.08
9.97
12.64
14.83
17.15
19.89
22.94
25.88
28.21
29.63
30.04
29.69
29.03
28.49
28.28
28.37
28.49
28.35
27.78
26.83
25.70
24.56
23.49
22.41
21.24
20.03
18.97
18.35
18.33
18.89
19.77
20.62
21.16
21.29
21.06
20.57
19.89
19.00
17.82
16.29
14.45
12.49
10.69
9.32
8.55
8.34
8.44
8.52
8.32
7.74
6.94
6.19
5.76
5.74
6.00
6.27
6.28
5.96
5.39
4.78
4.29
3.97
3.77
3.61
3.46
3.33
3.23
3.14
2.97
2.70
2.42
2.33
2.66
3.51
4.79
6.25
7.56
8.46
8.83
8.64
7.95
6.85
5.46
3.98
2.66
1.69
1.18
1.05
1.15
1.26
1.26
1.11
0.82
0.46
0.09
-0.23
-0.49
-0.63
-0.67
-0.63
-0.59
-0.57
-0.56
-0.42
0.01
0.81
1.99
3.37
4.69
5.72
6.34
6.52
6.36
5.95
5.35
4.59
3.73
2.88
2.20
1.84
1.85
2.17
2.60
2.94
3.04
2.91
2.68
2.47
2.35
2.22
1.98
1.53
0.90
0.25
-0.23
-0.44
-0.39
-0.21
-0.06
0.00
-0.02
-0.03
0.02
0.13
0.20
0.10
-0.25
-0.86
-1.65
-2.48
-3.19
-3.66
-3.85
-3.76
-3.47
-3.03
-2.50
-1.85
-1.15
-0.46
0.07
0.34
0.31
0.10
-0.10
-0.13
0.08
0.43
0.74
0.90
0.96
1.15
1.75
2.94
4.66
6.53
8.04
8.72
8.29
6.77
4.41
1.65
-1.10
-3.46
-5.16
-5.97
-5.74
-4.44
-2.24
0.53
3.39
5.87
7.63
8.57
8.78
8.52
8.04
7.46
6.78
5.87
4.63
3.05
1.25
-0.50
-1.93
-2.83
-3.12
-2.84
-2.13
-1.16
-0.09
0.92
1.67
1.98
1.77
1.07
0.08
-0.87
-1.49
-1.58
-1.17
-0.44
0.35
0.99
1.39
1.59
1.74
1.96
2.35
2.93
3.62
4.27
4.68
4.69
4.18
3.19
1.90
0.55
-0.58
-1.32
-1.64
-1.65
-1.53
-1.40
-1.31
-1.22
-1.15
-1.14
-1.34
-1.83
-2.58
-3.36
-3.87
-3.82
-3.11
-1.89
-0.44
0.92
1.98
2.66
2.94
2.84
2.37
1.60
0.68
-0.16
-0.73
-0.90
-0.73
-0.37
-0.03
0.12
-0.01
-0.45
-1.16
-2.03
-2.92
-3.62
-4.02
-4.08
-3.91
-3.71
-3.62
-3.66
-3.75
-3.79
-3.66
-3.36
-2.94
-2.41
-1.79
-1.03
-0.14
0.85
1.79
2.54
3.00
3.19
3.27
3.42
3.81
4.46
5.25
5.95
6.32
6.10
5.22
3.71
1.74
-0.41
-2.37
-3.80
-4.41
-4.09
-2.93
-1.19
0.77
2.63
4.19
5.34
6.10
6.48
6.50
6.15
5.43
4.42
3.20
1.94
0.76
-0.24
-1.07
-1.76
-2.36
-2.88
-3.31
-3.64
-3.88
-4.08
-4.29
-4.51
-4.66
-4.62
-4.32
-3.78
-3.13
-2.54
-2.07
-1.69
-1.25
-0.62
0.26
1.28
2.28
3.02
3.34
3.17
2.57
1.67
0.68
-0.16
-0.68
-0.78
-0.51
0.01
0.57
0.99
1.06
0.69
-0.08
-1.10
-2.10
-2.83
-3.11
-2.97
-2.59
-2.21
-2.00
-2.07
-2.41
-3.01
-3.80
-4.68
-5.47
-5.89
-5.76
-4.97
-3.62
-1.95
-0.22
1.37
2.72
3.80
4.57
4.95
4.87
4.38
3.64
2.96
2.64
2.82
3.45
4.26
4.89
5.00
4.43
3.24
1.73
0.26
-0.87
-1.47
-1.57
-1.31
-0.88
-0.45
-0.12
0.08
0.13
0.02
-0.25
-0.63
-1.03
-1.37
-1.64
-1.85
-2.03
-2.23
-2.35
-2.31
-2.04
-1.62
-1.17
-0.87
-0.80
-0.90
-1.05
-1.08
-0.92
-0.63
-0.32
-0.11
-0.07
-0.10
-0.05
0.27
0.94
1.90
2.98
3.94
4.63
4.94
4.89
4.53
3.95
3.22
2.47
1.82
1.43
1.34
1.53
1.91
2.28
2.51
2.45
2.04
1.24
0.14
-1.12
-2.23
-2.93
-3.03
-2.53
-1.60
-0.56
0.30
0.77
0.77
0.37
-0.26
-0.88
-1.26
-1.27
-0.93
-0.37
0.15
0.41
0.28
-0.23
-1.00
-1.82
-2.50
-2.93
-3.04
-2.86
-2.48
-2.01
-1.56
-1.19
-0.87
-0.57
-0.27
-0.00
0.20
0.27
0.19
-0.03
-0.37
-0.79
-1.23
-1.63
-1.90
-2.01
-1.96
-1.78
-1.49
-1.11
-0.59
0.05
0.79
1.50
2.00
2.19
2.02
1.56
0.93
0.21
-0.53
-1.26
-1.93
-2.48
-2.81
-2.85
-2.62
-2.19
-1.66
-1.13
-0.67
-0.40
-0.39
-0.73
-1.38
-2.18
-2.84
-3.05
-2.64
-1.67
-0.42
0.66
1.22
1.07
0.35
-0.62
-1.45
-1.82
-1.65
-1.03
-0.20
0.61
1.26
1.78
2.29
2.99
3.98
5.26
6.75
8.28
9.69
10.77
11.36
11.34
10.76
9.83
8.89
8.29
8.22
8.67
9.36
9.96
10.18
9.84
8.93
7.50
5.64
3.45
1.05
-1.41
-3.71
-5.71
-7.31
-8.51
-9.32
-9.69
-9.54
-8.76
-7.31
-5.23
-2.69
0.03
2.65
4.91
6.66
7.81
8.37
8.43
8.09
7.47
6.70
5.88
5.06
4.34
3.78
3.52
3.71
4.57
6.24
8.77
11.98
15.43
18.49
20.48
20.84
19.34
16.15
11.83
7.23
3.18
0.28
-1.33
-1.95
-2.23
-2.89
-4.37
-6.69
-9.38
-11.72
-12.93
-12.57
-10.62
-7.50
-3.95
-0.74
1.50
2.51
2.40
1.63
0.82
0.53
1.06
2.37
4.14
5.92
7.30
8.01
7.94
7.10
5.47
3.13
0.21
-3.02
-6.16
-8.77
-10.66
-11.93
-13.04
-14.58
-16.91
-19.90
-22.88
-24.84
-24.84
-22.39
-17.62
-11.20
-4.13
2.66
8.46
12.86
15.73
17.07
16.90
15.28
12.31
8.21
3.37
-1.61
-6.07
-9.47
-11.59
-12.60
-12.95
-13.12
-13.32
-13.44
-13.13
-12.07
-10.20
-7.72
-5.06
-2.53
-0.27
1.80
3.83
5.89
7.96
9.97
11.93
13.88
15.80
17.46
18.48
18.41
17.04
14.52
11.28
7.80
4.36
0.97
-2.53
-6.21
-9.95
-13.43
-16.31
-18.42
-19.78
-20.55
-20.78
-20.43
-19.38
-17.66
-15.43
-13.08
-11.03
-9.57
-8.86
-8.88
-9.58
-10.85
-12.55
-14.46
-16.30
-17.78
-18.73
-19.16
-19.24
-19.18
-19.04
-18.64
-17.73
-16.14
-14.06
-12.09
-11.07
-11.63
-13.82
-16.86
-19.35
-19.64
-16.48
-9.47
0.86
13.30
26.30
38.39
48.32
55.15
58.33
57.75
53.90
47.80
40.64
33.45
26.75
20.51
14.47
8.44
2.55
-2.77
-7.06
-10.00
-11.55
-11.91
-11.47
-10.64
-9.78
-9.05
-8.28
-7.01
-4.64
-0.76
4.53
10.56
16.21
20.30
22.06
21.31
18.58
14.79
10.98
7.85
5.59
3.89
2.16
-0.15
-3.25
-6.95
-10.82
-14.34
-17.12
-18.88
-19.43
-18.62
-16.56
-13.70
-10.93
-9.35
-9.70
-11.97
-15.10
-17.39
-17.21
-13.74
-7.37
0.42
7.69
12.78
14.78
13.72
10.33
5.60
0.50
-4.24
-8.14
-10.95
-12.63
-13.38
-13.53
-13.49
-13.56
-13.72
-13.71
-13.15
-11.86
-9.99
-8.02
-6.54
-5.96
-6.29
-7.22
-8.26
-8.96
-8.80
-7.28
-3.88
1.64
8.97
17.05
24.30
29.21
30.94
29.62
26.21
21.98
17.91
14.39
11.31
8.36
5.34
2.34
-0.30
-2.24
-3.29
-3.52
-3.24
-2.85
-2.66
-2.72
-2.88
-2.88
-2.57
-2.06
-1.69
-1.79
-2.51
-3.70
-4.95
-5.79
-5.82
-4.75
-2.46
1.04
5.51
10.43
15.12
18.87
21.25
22.37
22.82
23.37
24.59
26.47
28.45
29.61
29.13
26.63
22.38
17.10
11.84
7.57
5.03
4.41
5.23
6.31
5.98
2.76
-3.97
-13.39
-23.39
-31.25
-34.76
-33.12
-27.17
-18.99
-10.91
-4.73
-1.23
-0.26
-1.08
-2.81
-4.68
-6.07
-6.56
-5.95
-4.33
-1.99
0.62
3.03
4.80
5.64
5.40
4.12
2.05
-0.40
-2.77
-4.73
-6.19
-7.37
-8.63
-10.29
-12.38
-14.57
-16.31
-17.17
-16.96
-15.93
-14.51
-13.11
-11.88
-10.78
-9.65
-8.35
-6.91
-5.46
-4.17
-3.25
-2.89
-3.25
-4.38
-6.14
-8.18
-10.08
-11.41
-11.99
-11.77
-10.86
-9.33
-7.29
-4.90
-2.52
-0.61
0.43
0.49
-0.16
-0.97
-1.44
-1.36
-0.81
-0.00
1.01
2.45
4.68
7.94
12.04
16.38
20.14
22.57
23.28
22.31
19.97
16.67
12.78
8.57
4.33
0.40
-2.76
-4.74
-5.25
-4.26
-2.16
0.42
2.69
4.02
4.03
2.80
0.72
-1.62
-3.65
-5.01
-5.61
-5.61
-5.33
-5.02
-4.74
-4.32
-3.42
-1.73
0.77
3.70
6.33
7.81
7.57
5.47
1.93
-2.16
-5.82
-8.24
-8.97
-8.01
-5.71
-2.67
0.41
2.78
3.84
3.25
1.23
-1.53
-4.05
-5.39
-5.13
-3.47
-1.20
0.73
1.57
1.07
-0.52
-2.62
-4.53
-5.70
-5.83
-4.95
-3.34
-1.44
0.28
1.53
2.21
2.34
2.04
1.37
0.39
-0.76
-1.86
-2.65
-2.91
-2.67
-2.06
-1.38
-0.81
-0.42
-0.18
-0.04
-0.02
-0.19
-0.61
-1.17
-1.63
-1.64
-0.90
0.70
3.00
5.61
8.06
9.91
10.95
11.16
10.70
9.81
8.68
7.42
6.07
4.65
3.17
1.71
0.33
-0.89
-1.89
-2.65
-3.18
-3.61
-4.10
-4.87
-6.09
-7.80
-9.86
-11.87
-13.33
-13.71
-12.61
-9.94
-5.94
-1.22
3.48
7.40
10.00
11.09
10.79
9.45
7.52
5.34
3.16
1.01
-1.10
-3.20
-5.22
-7.03
-8.46
-9.42
-9.93
-10.07
-9.95
-9.66
-9.21
-8.70
-8.25
-8.05
-8.16
-8.39
-8.25
-7.12
-4.51
-0.37
4.78
10.02
14.35
17.08
18.04
17.54
16.18
14.54
12.98
11.55
10.16
8.65
6.98
5.21
3.50
1.98
0.73
-0.23
-0.96
-1.54
-2.13
-2.97
-4.40
-6.69
-9.84
-13.43
-16.59
-18.19
-17.36
-13.82
-8.12
-1.44
4.84
9.68
12.62
13.81
13.70
12.71
11.12
9.07
6.67
4.10
1.69
-0.23
-1.51
-2.14
-2.27
-2.12
-1.91
-1.81
-1.97
-2.49
-3.46
-4.90
-6.61
-8.21
-9.11
-8.72
-6.67
-2.98
1.85
7.01
11.62
14.98
16.80
17.11
16.19
14.38
11.95
9.09
5.93
2.60
-0.72
-3.82
-6.47
-8.45
-9.66
-10.07
-9.79
-9.03
-8.11
-7.37
-7.15
-7.68
-8.95
-10.63
-12.06
-12.41
-11.05
-7.74
-2.90
2.60
7.68
11.51
13.68
14.24
13.53
11.94
9.72
7.03
4.03
0.91
-2.08
-4.71
-6.93
-8.81
-10.57
-12.38
-14.26
-16.06
-17.56
-18.59
-19.05
-18.96
-18.28
-16.81
-14.21
-10.12
-4.39
2.74
10.49
17.73
23.31
26.36
26.62
24.41
20.43
15.54
10.46
5.72
1.74
-1.20
-2.77
-2.79
-1.27
1.50
4.96
8.42
11.29
13.18
13.90
13.45
11.93
9.44
6.12
2.14
-2.19
-6.40
-9.90
-12.07
-12.42
-10.79
-7.34
-2.59
2.76
7.94
12.33
15.44
17.04
17.13
15.82
13.34
9.95
5.96
1.70
-2.37
-5.75
-7.95
-8.61
-7.71
-5.61
-2.99
-0.67
0.61
0.42
-1.28
-4.16
-7.61
-10.88
-13.24
-14.10
-13.18
-10.53
-6.57
-1.97
2.46
6.01
8.18
8.76
7.85
5.74
2.84
-0.39
-3.50
-6.11
-7.91
-8.72
-8.54
-7.53
-6.01
-4.38
-3.09
-2.44
-2.63
-3.62
-5.18
-6.94
-8.39
-9.06
-8.58
-6.89
-4.25
-1.17
1.72
3.85
4.89
4.74
3.54
1.51
-0.96
-3.44
-5.51
-6.84
-7.27
-6.85
-5.65
-3.75
-1.20
1.89
5.23
8.23
10.12
10.17
8.00
3.83
-1.52
-6.83
-10.85
-12.69
-12.10
-9.51
-5.79
-1.96
1.18
3.20
3.92
3.36
1.49
-1.69
-6.07
-11.37
-17.08
-22.60
-27.35
-30.89
-32.92
-33.33
-32.26
-30.03
-27.09
-23.93
-20.90
-18.12
-15.51
-12.84
-9.73
-5.77
-0.45
6.61
15.45
25.60
36.09
45.74
53.59
59.23
62.82
64.80
65.46
64.65
61.90
56.63
48.63
38.31
26.66
14.96
4.36
-4.38
-11.03
-15.81
-19.18
-21.65
-23.66
-25.47
-27.19
-28.75
-29.90
-30.28
-29.43
-27.00
-22.89
-17.37
-11.06
-4.75
0.82
5.11
7.87
9.11
8.98
7.68
5.43
2.55
-0.60
-3.53
-5.75
-6.84
-6.48
-4.60
-1.41
2.54
6.53
9.71
11.48
11.64
10.52
8.87
7.56
7.23
8.08
9.81
11.74
13.12
13.29
12.00
9.39
5.97
2.54
-0.11
-1.38
-1.13
0.33
2.31
4.03
4.89
4.71
3.69
2.24
0.81
-0.39
-1.37
-2.26
-3.13
-3.95
-4.61
-5.06
-5.38
-5.73
-6.21
-6.67
-6.74
-5.96
-4.04
-1.11
2.33
5.62
8.21
9.84
10.61
10.73
10.42
9.71
8.53
6.80
4.60
2.14
-0.22
-2.14
-3.39
-3.94
-3.89
-3.49
-3.00
-2.65
-2.59
-2.92
-3.65
-4.71
-5.90
-6.91
-7.35
-6.86
-5.35
-3.01
-0.33
2.10
3.76
4.35
3.85
2.40
0.30
-2.11
-4.45
-6.35
-7.53
-7.90
-7.64
-7.07
-6.54
-6.30
-6.43
-6.81
-7.28
-7.73
-8.20
-8.77
-9.50
-10.28
-10.86
-10.91
-10.23
-8.81
-6.85
-4.57
-2.09
0.67
3.84
7.48
11.30
14.82
17.52
19.12
19.72
19.71
19.47
19.07
18.27
16.64
14.00
10.54
6.82
3.44
0.70
-1.43
-3.24
-4.93
-6.35
-7.07
-6.54
-4.51
-1.25
2.46
5.61
7.27
7.00
5.02
2.16
-0.33
-1.23
0.24
4.08
9.52
15.23
19.80
22.26
22.30
20.30
17.02
13.26
9.60
6.26
3.23
0.39
-2.33
-4.93
-7.38
-9.61
-11.63
-13.39
-14.77
-15.50
-15.27
-13.80
-11.11
-7.61
-4.00
-1.09
0.56
0.75
-0.26
-1.93
-3.76
-5.41
-6.88
-8.39
-10.28
-12.74
-15.74
-19.00
-22.07
-24.46
-25.83
-26.11
-25.52
-24.40
-23.09
-21.83
-20.70
-19.64
-18.52
-17.09
-14.96
-11.70
-6.98
-0.87
6.07
12.92
18.68
22.75
25.13
26.43
27.48
28.94
30.95
33.20
35.04
35.91
35.48
33.73
30.89
27.24
23.07
18.64
14.16
9.83
5.84
2.31
-0.71
-3.31
-5.64
-7.88
-10.04
-11.90
-12.93
-12.49
-10.11
-5.79
-0.20
5.48
9.90
12.04
11.58
9.03
5.42
1.85
-0.99
-3.03
-4.67
-6.43
-8.63
-11.17
-13.62
-15.52
-16.61
-16.93
-16.76
-16.40
-16.03
-15.70
-15.48
-15.56
-16.35
-18.32
-21.60
-25.87
-30.23
-33.41
-34.14
-31.63
-25.77
-17.17
-7.01
3.33
12.53
19.56
23.76
24.90
23.15
19.06
13.53
7.65
2.48
-1.15
-2.84
-2.66
-1.09
1.14
3.33
4.92
5.65
5.50
4.65
3.34
1.81
0.21
-1.31
-2.55
-3.27
-3.25
-2.35
-0.69
1.42
3.52
5.27
6.48
7.20
7.58
7.70
7.52
6.88
5.65
3.86
1.79
-0.19
-1.72
-2.60
-2.93
-2.94
-2.88
-2.88
-2.92
-2.89
-2.73
-2.49
-2.39
-2.69
-3.55
-4.85
-6.20
-6.96
-6.58
-4.72
-1.50
2.56
6.72
10.27
12.76
14.02
14.24
13.75
12.92
12.10
11.59
11.62
12.33
13.63
15.20
16.47
16.74
15.41
12.16
7.10
0.79
-5.96
-12.28
-17.37
-20.71
-21.98
-21.12
-18.26
-13.66
-7.76
-1.09
5.68
11.91
16.95
20.31
21.70
21.08
18.71
15.09
10.87
6.70
3.10
0.39
-1.40
-2.45
-3.08
-3.62
-4.29
-5.21
-6.38
-7.77
-9.29
-10.82
-12.13
-12.96
-13.09
-12.53
-11.52
-10.44
-9.58
-8.97
-8.35
-7.33
-5.73
-3.71
-1.84
-0.82
-1.11
-2.74
-5.24
-7.83
-9.78
-10.65
-10.51
-9.84
-9.33
-9.54
-10.72
-12.68
-14.90
-16.83
-18.07
-18.53
-18.34
-17.76
-17.04
-16.46
-16.38
-17.26
-19.58
-23.42
-28.27
-32.82
-35.36
-34.39
-29.19
-20.25
-9.14
2.14
11.79
18.70
22.67
24.06
23.50
21.51
18.46
14.64
10.33
5.85
1.46
-2.66
-6.42
-9.79
-12.83
-15.64
-18.45
-21.57
-25.21
-29.44
-34.14
-38.97
-43.48
-47.02
-48.68
-47.34
-41.84
-31.57
-16.85
0.85
19.17
35.64
48.42
56.89
61.40
62.87
62.14
59.62
55.39
49.43
41.99
33.56
24.87
16.53
9.02
2.63
-2.35
-5.69
-7.09
-6.45
-3.91
-0.00
4.43
8.38
11.02
11.98
11.57
10.66
10.33
11.38
14.02
17.79
21.86
25.44
28.10
29.87
30.96
31.50
31.45
30.70
29.21
27.30
25.53
24.49
24.58
25.80
27.79
29.92
31.51
31.94
30.76
27.67
22.53
15.49
6.94
-2.42
-11.68
-19.85
-26.06
-29.62
-30.12
-27.39
-21.50
-12.82
-2.13
9.34
20.01
28.33
33.13
34.05
31.51
26.52
20.32
13.95
8.08
2.99
-1.41
-5.34
-9.08
-12.78
-16.40
-19.67
-22.17
-23.45
-23.21
-21.45
-18.40
-14.49
-10.25
-6.19
-2.72
-0.17
1.34
1.78
1.21
-0.19
-2.19
-4.46
-6.54
-7.95
-8.40
-7.90
-6.84
-5.79
-5.17
-5.01
-4.97
-4.52
-3.40
-1.82
-0.45
-0.02
-0.85
-2.62
-4.44
-5.31
-4.60
-2.30
0.93
4.10
6.31
7.01
6.09
3.76
0.51
-3.04
-6.16
-8.13
-8.43
-6.92
-4.02
-0.57
2.31
3.71
3.12
0.61
-3.28
-7.73
-11.97
-15.41
-17.80
-19.13
-19.60
-19.49
-19.17
-19.06
-19.70
-21.62
-25.26
-30.70
-37.60
-45.10
-52.15
-57.83
-61.59
-63.24
-62.76
-59.97
-54.44
-45.72
-33.76
-19.29
-3.89
10.45
22.01
29.95
34.43
36.47
37.28
37.84
38.61
39.63
40.76
41.95
43.25
44.74
46.36
47.88
49.06
49.71
49.87
49.71
49.50
49.49
49.99
51.37
53.99
57.97
62.70
66.72
68.01
64.81
56.42
43.74
28.96
14.69
2.95
-5.33
-10.26
-12.42
-12.36
-10.49
-7.28
-3.61
-0.73
0.03
-2.27
-7.78
-15.90
-25.41
-34.90
-43.01
-48.78
-51.78
-52.26
-51.05
-49.21
-47.65
-46.66
-45.95
-44.76
-42.41
-38.64
-33.68
-28.10
-22.44
-16.97
-11.67
-6.38
-1.02
4.27
9.15
13.16
15.89
16.98
16.19
13.46
8.92
3.03
-3.46
-9.57
-14.37
-17.21
-17.93
-16.87
-14.78
-12.65
-11.42
-11.72
-13.65
-16.66
-19.66
-21.40
-20.90
-17.86
-12.80
-6.77
-0.95
3.84
7.27
9.48
10.76
11.30
11.10
10.01
8.04
5.38
2.52
0.06
-1.36
-1.41
-0.14
2.05
4.51
6.61
7.97
8.48
8.23
7.33
5.77
3.61
1.12
-1.09
-2.11
-1.13
2.22
7.57
13.95
20.12
25.09
28.33
29.87
29.98
28.94
26.83
23.58
19.18
13.88
8.21
2.92
-1.32
-4.16
-5.72
-6.50
-7.12
-8.02
-9.36
-11.02
-12.87
-14.96
-17.45
-20.42
-23.61
-26.23
-27.30
-25.98
-22.01
-15.88
-8.64
-1.51
4.48
8.70
10.88
11.02
9.24
5.77
0.96
-4.67
-10.47
-15.82
-20.21
-23.38
-25.45
-26.81
-27.99
-29.40
-31.16
-32.96
-34.32
-34.76
-34.09
-32.47
-30.17
-27.32
-23.71
-18.84
-12.25
-3.80
6.06
16.41
26.10
34.18
40.07
43.62
44.92
44.14
41.32
36.50
29.91
22.08
13.86
6.31
0.31
-3.64
-5.63
-6.24
-6.27
-6.38
-6.88
-7.68
-8.46
-9.03
-9.41
-9.83
-10.48
-11.23
-11.53
-10.56
-7.60
-2.45
4.38
11.80
18.46
23.27
25.66
25.67
23.79
20.65
16.89
12.97
9.20
5.83
3.04
0.97
-0.34
-0.98
-1.17
-1.20
-1.35
-1.82
-2.67
-3.90
-5.51
-7.53
-9.99
-12.81
-15.65
-17.83
-18.52
-16.92
-12.65
-5.99
2.17
10.59
18.03
23.60
26.91
27.94
26.95
24.27
20.21
15.19
9.67
4.16
-0.80
-4.78
-7.52
-8.96
-9.25
-8.75
-7.89
-7.11
-6.76
-7.04
-8.01
-9.68
-12.05
-15.03
-18.40
-21.61
-23.79
-23.94
-21.26
-15.49
-7.15
2.68
12.54
21.09
27.37
30.95
31.86
30.45
27.23
22.79
17.77
12.74
8.21
4.45
1.56
-0.61
-2.33
-3.89
-5.46
-7.09
-8.68
-10.11
-11.27
-12.21
-13.13
-14.33
-16.18
-18.83
-22.05
-25.15
-27.06
-26.61
-22.97
-16.07
-6.68
3.77
13.60
21.43
26.50
28.77
28.63
26.68
23.41
19.25
14.63
10.08
6.18
3.44
2.03
1.75
2.02
2.19
1.83
0.85
-0.45
-1.61
-2.36
-2.72
-3.10
-4.04
-6.04
-9.21
-13.15
-17.01
-19.68
-20.13
-17.75
-12.59
-5.33
2.84
10.63
17.01
21.46
23.96
24.78
24.13
22.07
18.56
13.64
7.70
1.54
-3.88
-7.74
-9.69
-10.01
-9.40
-8.70
-8.58
-9.26
-10.58
-12.13
-13.47
-14.36
-14.85
-15.13
-15.55
-16.34
-17.62
-19.36
-21.39
-23.37
-24.78
-24.98
-23.31
-19.37
-13.14
-5.02
4.17
13.48
22.02
29.08
34.19
37.18
38.08
37.12
34.68
31.23
27.24
23.18
19.41
16.14
13.45
11.22
9.26
7.37
5.49
3.75
2.40
1.66
1.48
1.54
1.31
0.31
-1.63
-4.27
-6.98
-9.03
-9.82
-9.20
-7.58
-5.92
-5.41
-7.08
-11.38
-17.93
-25.54
-32.58
-37.48
-39.21
-37.55
-33.06
-26.70
-19.37
-11.66
-3.79
4.21
12.13
19.52
25.70
30.07
32.40
33.00
32.57
31.87
31.36
31.00
30.37
28.98
26.59
23.37
19.76
16.32
13.48
11.40
9.96
8.95
8.04
6.97
5.52
3.52
0.88
-2.49
-6.51
-10.99
-15.56
-19.72
-23.03
-25.19
-26.31
-26.78
-27.19
-28.09
-29.74
-31.92
-34.08
-35.39
-35.02
-32.38
-27.29
-20.08
-11.56
-2.87
4.90
10.99
15.22
17.95
19.74
21.05
22.03
22.51
22.28
21.31
19.82
18.23
16.88
15.82
14.79
13.38
11.31
8.63
5.67
2.98
1.01
-0.03
-0.32
-0.32
-0.55
-1.45
-3.13
-5.43
-7.95
-10.31
-12.18
-13.50
-14.42
-15.25
-16.42
-18.32
-21.25
-25.25
-29.92
-34.40
-37.44
-37.72
-34.34
-27.14
-16.87
-4.98
6.86
17.23
25.35
31.10
34.85
37.10
38.17
38.14
36.90
34.43
30.92
26.84
22.80
19.30
16.58
14.52
12.79
11.11
9.29
7.37
5.52
3.91
2.58
1.38
0.08
-1.57
-3.75
-6.40
-9.24
-11.87
-13.83
-14.88
-15.10
-14.88
-14.76
-15.28
-16.79
-19.33
-22.60
-26.00
-28.61
-29.44
-27.64
-22.82
-15.26
-5.90
3.95
12.99
20.29
25.49
28.70
30.27
30.56
29.77
27.99
25.29
21.84
17.95
14.03
10.45
7.52
5.32
3.83
2.94
2.51
2.39
2.41
2.37
2.00
1.16
-0.22
-2.03
-4.04
-5.99
-7.67
-9.03
-10.08
-10.95
-11.72
-12.50
-13.36
-14.31
-15.37
-16.47
-17.55
-18.58
-19.68
-21.10
-23.01
-25.29
-27.35
-28.17
-26.58
-21.88
-14.11
-4.28
6.05
15.28
22.35
26.99
29.59
30.80
31.07
30.58
29.22
26.94
23.86
20.33
16.79
13.59
10.86
8.51
6.42
4.49
2.74
1.21
-0.04
-1.14
-2.26
-3.57
-5.10
-6.65
-7.92
-8.69
-8.98
-9.10
-9.50
-10.57
-12.36
-14.57
-16.63
-17.99
-18.33
-17.74
-16.64
-15.60
-15.16
-15.71
-17.35
-19.87
-22.71
-24.99
-25.65
-23.79
-18.95
-11.40
-2.09
7.61
16.36
23.19
27.76
30.24
31.05
30.67
29.39
27.36
24.65
21.42
17.91
14.43
11.30
8.72
6.74
5.22
3.93
2.69
1.40
0.12
-1.06
-2.07
-2.98
-3.95
-5.23
-6.96
-9.16
-11.66
-14.12
-16.18
-17.52
-17.99
-17.67
-16.84
-15.93
-15.35
-15.42
-16.26
-17.78
-19.72
-21.64
-22.94
-22.87
-20.72
-16.05
-8.95
-0.16
9.04
17.26
23.42
27.07
28.45
28.24
27.21
25.88
24.47
22.92
21.11
19.00
16.62
14.10
11.57
9.12
6.81
4.72
3.00
1.78
1.13
1.01
1.17
1.24
0.82
-0.37
-2.31
-4.75
-7.25
-9.34
-10.73
-11.43
-11.68
-11.86
-12.28
-13.00
-13.87
-14.60
-14.91
-14.73
-14.25
-13.89
-14.11
-15.23
-17.25
-19.70
-21.71
-22.27
-20.52
-16.15
-9.58
-1.82
5.85
12.34
17.09
20.01
21.37
21.51
20.65
18.94
16.58
13.87
11.24
9.04
7.43
6.32
5.40
4.33
2.93
1.17
-0.76
-2.57
-3.96
-4.81
-5.13
-5.22
-5.44
-6.16
-7.54
-9.44
-11.44
-13.06
-13.92
-13.95
-13.40
-12.74
-12.45
-12.91
-14.30
-16.44
-18.87
-20.76
-21.06
-18.80
-13.43
-5.13
5.10
15.74
25.22
32.46
37.12
39.57
40.55
40.76
40.63
40.24
39.51
38.35
36.79
34.92
32.77
30.19
26.82
22.25
16.24
8.92
0.95
-6.67
-12.84
-16.78
-18.25
-17.65
-15.80
-13.66
-11.99
-11.18
-11.29
-12.15
-13.51
-15.11
-16.74
-18.20
-19.30
-19.97
-20.23
-20.24
-20.23
-20.36
-20.57
-20.62
-20.04
-18.41
-15.48
-11.36
-6.45
-1.40
3.18
6.82
9.31
10.64
10.91
10.20
8.58
6.16
3.20
0.04
-2.93
-5.46
-7.49
-9.20
-10.90
-12.74
-14.66
-16.41
-17.65
-18.24
-18.29
-18.21
-18.51
-19.55
-21.43
-23.96
-26.88
-29.91
-32.89
-35.68
-38.17
-40.13
-41.45
-42.10
-42.21
-41.84
-40.84
-38.81
-35.20
-29.70
-22.41
-13.90
-4.90
4.07
12.86
21.58
30.19
38.17
44.50
48.02
48.00
44.57
38.73
32.06
26.07
21.65
18.82
16.76
14.40
11.00
6.57
1.88
-2.01
-4.32
-5.04
-4.87
-4.78
-5.36
-6.49
-7.42
-7.34
-5.86
-3.30
-0.47
1.84
3.26
3.93
4.22
4.43
4.59
4.77
5.36
7.26
11.56
18.78
28.32
38.33
46.51
51.15
51.95
50.07
47.32
45.02
43.30
41.11
37.02
30.20
20.97
10.56
0.37
-8.76
-17.02
-25.52
-35.75
-48.93
-65.38
-84.33
-103.91
-121.79
-136.00
-145.68
-151.40
-154.95
-158.57
-164.13
-172.52
-183.34
-195.05
-205.33
-211.54
-211.33
-203.29
-187.39
-165.02
-138.64
-110.72
-82.83
-54.95
-25.41
8.39
48.73
96.09
148.28
200.40
245.82
278.10
292.91
289.42
270.55
241.96
210.30
181.14
157.44
139.16
124.00
109.14
92.91
75.68
59.43
46.27
36.97
30.44
24.83
19.17
14.92
15.68
25.24
45.32
73.93
105.91
134.93
155.98
166.77
167.71
160.78
148.11
131.22
111.02
88.06
62.89
36.25
9.18
-16.83
-39.91
-58.20
-70.58
-77.52
-81.23
-85.29
-93.55
-109.02
-132.81
-163.97
-199.67
-235.94
-268.65
-294.42
-311.42
-319.58
-320.29
-315.69
-307.69
-297.43
-285.22
-271.07
-255.07
-237.48
-218.42
-197.40
-173.12
-143.78
-107.67
-64.05
-13.83
40.11
92.97
138.96
172.65
190.70
192.98
182.73
165.45
146.99
131.88
122.44
119.14
121.53
129.09
141.33
157.27
174.87
191.15
203.06
208.69
208.08
203.07
196.28
189.63
183.48
176.68
167.63
155.42
140.66
125.34
112.07
102.99
99.12
99.96
103.57
106.83
105.86
96.88
77.23
46.48
6.75
-37.78
-82.23
-122.54
-156.36
-183.09
-203.16
-217.12
-225.32
-227.95
-225.25
-217.61
-205.27
-188.11
-165.71
-137.87
-105.29
-69.93
-34.78
-3.02
22.87
41.73
54.01
61.48
66.91
73.42
83.84
100.04
122.23
148.66
175.72
198.66
212.86
215.05
204.27
181.98
151.42
116.56
80.99
47.18
16.41
-11.01
-35.22
-56.33
-74.36
-89.07
-100.09
-107.00
-109.54
-107.94
-103.35
-98.11
-95.57
-99.18
-111.15
-131.38
-156.97
-183.21
-205.19
-219.69
-226.06
-225.89
-221.72
-215.63
-208.45
-199.86
-189.07
-175.21
-157.33
-133.96
-103.20
-63.54
-15.21
38.54
91.29
134.86
161.60
166.73
149.61
113.83
66.15
14.93
-31.38
-65.67
-83.23
-82.52
-65.48
-37.10
-4.31
25.69
47.02
56.40
53.72
42.06
26.84
14.46
10.48
18.04
37.19
65.37
98.82
133.77
167.01
195.57
216.44
226.90
225.55
213.36
193.74
171.17
149.15
128.52
107.66
84.31
57.94
31.05
8.39
-5.49
-8.92
-4.23
3.17
7.42
4.59
-6.06
-22.74
-42.52
-62.72
-81.39
-97.00
-107.95
-112.61
-109.90
-100.16
-85.38
-68.85
-54.02
-43.38
-37.79
-36.54
-38.07
-40.89
-44.27
-48.43
-54.04
-61.43
-69.80
-77.14
-80.93
-79.25
-71.63
-59.03
-43.17
-25.66
-7.61
10.28
27.28
42.44
54.99
64.92
73.41
82.41
93.82
108.49
125.74
143.71
160.12
173.04
181.30
184.47
182.72
176.61
167.02
154.97
141.73
128.77
117.57
109.48
105.13
104.08
104.77
104.90
102.12
94.84
82.85
67.41
51.07
36.96
27.63
24.00
24.40
24.68
19.41
3.93
-23.37
-59.91
-99.32
-133.58
-155.84
-162.68
-154.86
-136.39
-112.66
-88.80
-68.90
-56.04
-52.33
-58.63
-73.68
-93.34
-110.91
-118.98
-112.12
-89.25
-54.20
-14.20
23.09
52.34
71.86
82.91
88.00
89.34
88.29
85.76
82.92
81.34
82.51
87.24
95.29
105.43
115.98
125.18
131.49
133.60
130.69
122.63
110.07
94.25
76.52
57.81
38.51
18.84
-0.60
-18.43
-32.76
-41.77
-44.51
-41.28
-33.46
-23.11
-12.47
-3.60
1.93
3.55
2.08
-0.14
0.17
6.04
18.81
37.31
58.14
76.89
89.80
94.92
92.47
84.16
72.31
59.00
45.83
33.98
24.45
18.03
15.19
15.69
18.48
21.82
23.67
22.46
17.43
8.95
-1.69
-12.81
-22.83
-30.69
-36.01
-39.03
-40.38
-40.87
-41.22
-41.88
-42.95
-44.16
-45.13
-45.64
-45.90
-46.51
-48.21
-51.48
-56.13
-61.36
-66.00
-68.99
-69.78
-68.46
-65.66
-62.17
-58.61
-55.21
-51.88
-48.43
-44.78
-41.16
-38.05
-35.96
-35.25
-35.82
-37.08
-38.16
-38.23
-36.76
-33.65
-29.05
-23.03
-15.46
-6.10
5.03
17.21
28.85
37.74
41.75
39.61
31.50
19.02
4.79
-8.37
-18.21
-23.49
-24.10
-20.98
-15.74
-10.31
-6.50
-5.57
-7.84
-12.48
-17.68
-21.18
-21.18
-17.12
-10.20
-3.06
1.11
-0.13
-7.45
-19.49
-33.44
-46.30
-56.00
-61.99
-64.91
-65.82
-65.43
-63.94
-61.39
-58.23
-55.58
-54.85
-57.08
-62.34
-69.60
-77.29
-84.11
-89.63
-94.34
-98.98
-103.72
-107.63
-108.82
-105.14
-95.16
-78.81
-57.47
-33.48
-9.35
12.91
32.14
47.92
60.34
69.66
76.20
80.31
82.37
82.76
81.68
78.92
73.95
66.10
55.02
41.02
25.24
9.33
-4.98
-16.42
-24.46
-29.19
-31.10
-30.65
-28.22
-24.08
-18.48
-11.77
-4.28
3.83
12.56
22.01
32.15
42.56
52.25
59.62
62.86
60.58
52.62
40.45
26.94
15.39
8.25
6.00
6.93
7.70
4.65
-4.90
-21.70
-44.28
-69.33
-92.52
-109.52
-117.18
-114.32
-102.16
-83.91
-63.72
-45.39
-31.29
-21.96
-16.53
-13.54
-11.83
-10.99
-11.29
-13.32
-17.55
-24.12
-32.81
-43.19
-54.74
-67.03
-79.70
-92.49
-105.31
-118.37
-132.21
-147.66
-165.34
-185.08
-205.45
-223.72
-236.62
-241.37
-236.75
-223.48
-203.64
-179.52
-152.34
-121.94
-87.33
-48.17
-5.99
35.53
71.63
98.25
113.66
118.97
117.41
112.78
108.01
104.47
102.12
100.18
97.73
93.86
87.69
78.40
65.56
49.67
32.51
16.80
5.37
0.14
1.33
7.40
15.57
22.80
26.61
25.72
20.32
12.01
3.48
-2.24
-2.78
2.66
12.80
24.50
33.83
37.37
33.27
21.70
4.46
-15.86
-36.77
-56.47
-73.85
-88.16
-98.57
-103.99
-103.24
-95.60
-81.29
-61.69
-39.13
-16.20
4.83
22.43
35.86
44.77
48.97
48.41
43.27
34.26
22.60
9.92
-2.14
-12.09
-18.82
-21.55
-19.76
-13.24
-2.29
11.94
27.26
40.55
48.53
48.72
40.56
25.80
8.13
-8.06
-19.21
-23.62
-21.68
-15.21
-6.39
3.16
12.68
22.14
31.70
41.32
50.62
59.00
65.96
71.30
75.13
77.70
79.11
79.27
77.88
74.71
69.78
63.55
56.64
49.69
43.14
37.31
32.71
30.42
32.06
39.31
52.96
71.97
93.22
112.19
124.38
126.95
119.72
105.20
87.52
70.99
58.71
51.90
49.99
51.19
53.38
54.75
54.25
51.69
47.51
42.56
37.66
33.41
29.91
26.78
23.18
18.13
10.92
1.62
-8.62
-17.72
-23.14
-22.79
-15.71
-2.39
15.30
34.81
53.64
69.98
82.99
92.80
100.07
105.48
109.32
111.30
110.78
107.21
100.41
90.78
79.08
66.22
53.02
40.19
28.21
17.25
7.04
-3.12
-13.88
-25.32
-36.42
-45.25
-49.54
-47.74
-39.84
-27.44
-13.25
-0.04
10.22
16.72
19.70
20.03
18.69
16.39
13.46
9.91
5.65
0.84
-3.93
-7.53
-8.67
-6.29
-0.24
8.52
17.73
24.33
25.20
18.14
2.68
-19.40
-44.34
-67.33
-83.74
-90.53
-86.87
-74.28
-55.82
-35.09
-15.28
1.42
13.94
22.07
26.20
27.08
25.69
23.14
20.51
18.54
17.30
16.06
13.51
8.20
-0.84
-13.60
-29.07
-45.53
-61.21
-74.83
-85.93
-94.84
-102.26
-108.93
-115.23
-121.02
-125.57
-127.68
-125.94
-119.04
-106.11
-87.12
-62.90
-34.98
-5.25
24.56
53.36
80.94
107.90
135.24
163.71
193.16
222.05
247.64
266.79
277.00
277.42
269.17
254.90
237.75
220.35
204.26
189.96
177.26
165.71
154.67
143.27
130.51
115.50
97.99
78.73
59.46
42.48
29.66
21.69
17.57
14.77
9.90
-0.07
-16.69
-39.27
-64.88
-89.31
-108.49
-119.90
-123.22
-120.07
-113.01
-104.49
-96.12
-88.73
-82.66
-78.16
-75.51
-74.86
-75.99
-78.22
-80.62
-82.33
-82.95
-82.53
-81.36
-79.56
-76.70
-71.87
-63.94
-52.17
-36.70
-18.54
0.68
19.26
35.88
49.64
60.00
66.60
69.38
68.97
66.96
65.80
68.11
75.57
88.05
103.16
116.80
124.28
121.80
107.70
83.27
52.63
21.62
-3.94
-20.24
-26.65
-25.72
-21.91
-19.60
-21.33
-27.14
-35.16
-42.94
-48.86
-52.68
-55.15
-57.18
-59.03
-60.09
-59.34
-55.82
-49.04
-38.92
-25.62
-9.14
10.63
33.61
58.98
84.65
107.25
122.88
128.44
123.04
108.71
89.98
72.19
59.38
52.76
50.53
49.15
45.34
37.63
26.67
14.28
2.06
-9.55
-21.21
-33.88
-47.94
-62.93
-78.07
-93.03
-108.52
-126.05
-147.24
-173.04
-203.18
-236.25
-270.00
-301.77
-328.81
-348.55
-358.99
-359.16
-349.49
-331.77
-308.76
-283.47
-258.39
-235.05
-213.68
-193.27
-171.87
-147.27
-117.74
-82.90
-44.11
-4.31
32.48
62.01
80.68
86.15
77.83
57.27
28.14
-4.25
-34.16
-57.00
-70.52
-75.27
-73.78
-69.19
-63.89
-58.95
-54.21
-48.97
-42.49
-34.20
-23.72
-10.72
5.10
24.03
46.08
70.85
97.15
122.82
144.92
160.25
166.48
163.15
152.14
137.10
122.21
110.64
103.58
100.34
99.12
98.09
96.03
92.55
87.84
82.30
76.31
70.00
63.17
55.14
44.84
30.95
12.37
-11.33
-39.53
-70.44
-101.38
-129.24
-150.94
-163.93
-166.56
-158.22
-139.44
-111.74
-77.19
-38.00
3.80
46.26
87.27
124.23
154.33
175.04
184.90
184.06
174.28
158.54
140.27
122.63
108.03
97.85
92.42
91.16
92.78
95.63
98.05
98.71
96.76
91.87
84.22
74.46
63.63
53.01
43.74
36.40
30.79
26.16
21.56
16.49
11.15
6.42
3.38
2.76
4.29
6.51
7.00
2.97
-7.62
-25.21
-48.16
-73.05
-95.81
-113.14
-123.65
-128.27
-129.59
-130.59
-133.54
-139.27
-147.39
-156.82
-166.44
-175.35
-182.80
-187.94
-189.70
-186.94
-178.86
-165.30
-147.02
-125.44
-102.43
-79.81
-59.13
-41.43
-27.31
-16.93
-10.17
-6.76
-6.41
-8.82
-13.63
-20.37
-28.35
-36.72
-44.65
-51.63
-57.61
-62.93
-68.08
-73.42
-79.04
-84.89
-90.94
-97.24
-103.68
-109.65
-113.85
-114.53
-110.06
-99.62
-83.63
-63.66
-41.83
-20.11
0.20
18.62
35.27
50.42
64.24
76.65
87.41
96.32
103.33
108.63
112.45
115.04
116.50
116.83
115.97
113.92
110.83
106.94
102.61
98.19
93.88
89.63
85.18
80.21
74.61
68.79
63.72
60.86
61.63
67.04
77.24
91.50
108.41
126.20
143.00
156.97
166.32
169.44
165.28
153.66
135.58
113.13
88.88
65.24
43.85
25.37
9.84
-2.89
-12.78
-19.63
-23.45
-24.70
-24.46
-24.12
-24.96
-27.80
-32.73
-39.10
-45.68
-50.81
-52.77
-50.20
-42.50
-30.15
-14.62
2.05
17.89
31.50
42.29
50.24
55.64
58.76
59.82
59.06
56.87
53.72
49.99
45.84
41.08
35.32
28.32
20.35
12.41
6.10
3.02
4.08
8.93
15.88
22.46
26.22
25.51
19.77
9.45
-4.34
-20.10
-35.96
-49.74
-59.09
-62.04
-57.58
-46.20
-29.87
-11.48
6.05
20.49
30.75
36.80
39.29
39.19
37.43
34.90
32.39
30.58
29.91
30.32
31.16
31.18
28.97
23.53
14.72
3.40
-8.93
-20.69
-30.84
-39.15
-46.10
-52.53
-59.07
-65.82
-72.19
-77.03
-78.97
-76.85
-70.12
-59.05
-44.65
-28.36
-11.69
4.15
18.25
29.93
38.56
43.61
44.84
42.62
38.10
33.04
29.25
28.02
29.65
33.49
38.27
42.64
45.61
46.65
45.67
42.75
38.07
31.84
24.35
15.97
7.06
-2.11
-11.37
-20.49
-29.04
-36.18
-40.76
-41.59
-37.93
-29.78
-18.01
-4.06
10.48
24.35
36.76
47.39
56.14
62.98
67.91
71.02
72.58
72.97
72.57
71.61
70.14
68.11
65.48
62.33
58.88
55.46
52.47
50.33
49.40
49.76
51.10
52.57
52.94
50.98
45.87
37.47
26.42
13.90
1.30
-10.00
-18.86
-24.47
-26.41
-24.73
-19.94
-12.98
-5.04
2.62
8.94
13.20
15.12
14.83
12.77
9.52
5.65
1.57
-2.57
-6.82
-11.37
-16.41
-22.05
-28.22
-34.73
-41.30
-47.65
-53.64
-59.25
-64.69
-70.37
-76.75
-84.27
-93.10
-102.90
-112.78
-121.30
-126.91
-128.43
-125.53
-118.94
-110.20
-100.99
-92.55
-85.15
-78.26
-71.01
-62.85
-54.02
-45.51
-38.67
-34.58
-33.63
-35.38
-38.70
-42.24
-44.89
-46.00
-45.53
-43.89
-41.83
-40.17
-39.62
-40.57
-43.05
-46.78
-51.22
-55.83
-60.30
-64.60
-69.01
-73.81
-78.93
-83.67
-86.67
-86.23
-80.90
-69.99
-53.95
-34.39
-13.73
5.40
20.75
30.89
35.40
34.85
30.49
24.05
17.35
12.07
9.44
10.10
13.91
20.03
27.05
33.35
37.51
38.60
36.37
31.27
24.29
16.67
9.69
4.26
0.71
-1.32
-2.69
-4.31
-6.61
-9.15
-10.73
-9.71
-4.76
4.73
18.38
35.07
53.39
72.03
89.91
106.07
119.45
128.91
133.54
133.04
128.01
119.80
109.99
99.84
89.83
79.67
68.68
56.41
43.07
29.60
17.38
7.66
1.08
-2.62
-4.53
-6.26
-9.40
-15.10
-23.70
-34.61
-46.47
-57.40
-65.34
-68.48
-65.69
-56.86
-43.00
-26.10
-8.56
7.48
20.63
30.51
37.54
42.46
45.85
47.88
48.48
47.56
45.33
42.24
38.70
34.76
30.02
23.83
15.76
6.03
-4.42
-14.22
-22.13
-27.62
-31.10
-33.83
-37.53
-43.83
-53.66
-66.86
-81.91
-96.09
-106.12
-109.09
-103.45
-89.53
-69.43
-46.28
-23.17
-2.31
15.36
29.88
41.74
51.33
58.62
63.25
64.85
63.44
59.65
54.63
49.70
45.82
43.21
41.29
39.02
35.49
30.34
23.82
16.54
8.85
0.51
-9.27
-21.48
-36.75
-55.00
-75.26
-95.85
-114.45
-128.31
-134.61
-131.08
-116.79
-92.84
-62.42
-30.12
-0.76
21.90
35.91
41.34
39.88
34.14
26.97
20.83
17.43
17.50
20.85
26.51
33.06
38.86
42.27
41.85
36.73
26.95
13.74
-0.65
-13.49
-22.59
-27.07
-27.67
-26.44
-25.89
-28.11
-34.04
-43.23
-53.96
-63.85
-70.55
-72.35
-68.49
-59.11
-44.97
-27.09
-6.61
15.16
36.52
55.36
69.44
76.91
76.92
69.86
57.27
41.37
24.47
8.50
-5.13
-15.58
-22.55
-26.20
-27.16
-26.41
-25.07
-24.16
-24.37
-25.96
-28.92
-33.09
-38.27
-44.20
-50.39
-56.15
-60.70
-63.48
-64.46
-64.09
-63.12
-61.91
-60.05
-56.32
-49.19
-37.73
-22.40
-5.21
10.87
23.06
29.83
31.41
29.36
25.71
21.92
18.37
14.53
9.48
2.57
-6.24
-16.45
-27.26
-37.79
-47.16
-54.48
-58.91
-59.90
-57.50
-52.49
-46.11
-39.56
-33.36
-27.02
-19.25
-8.63
5.71
23.54
43.63
64.29
83.93
101.64
117.15
130.47
141.47
149.60
154.05
154.20
150.14
142.92
134.28
126.15
120.09
116.99
117.09
120.15
125.58
132.32
138.81
142.96
142.57
135.90
122.22
102.05
76.94
48.86
19.66
-9.20
-36.65
-61.65
-82.94
-99.10
-108.84
-111.50
-107.45
-98.03
-85.18
-70.74
-55.84
-40.72
-25.04
-8.53
8.52
25.03
39.56
50.99
59.09
64.65
68.98
73.10
77.12
80.27
81.66
81.20
80.11
80.49
84.27
92.26
103.82
117.36
131.28
144.54
156.78
167.84
177.32
184.60
189.34
192.00
193.99
197.02
202.26
209.55
217.29
223.04
224.44
220.05
209.68
194.11
174.55
151.98
126.90
99.31
69.06
36.13
0.76
-36.66
-75.74
-115.97
-156.59
-196.32
-233.33
-265.65
-291.66
-310.63
-323.06
-330.46
-335.01
-338.82
-343.49
-349.76
-357.67
-367.03
-377.90
-390.80
-406.27
-424.10
-442.47
-457.72
-465.14
-460.45
-441.27
-407.82
-362.57
-309.08
-251.06
-191.81
-134.34
-81.61
-36.32
-0.41
25.62
42.85
53.52
60.07
64.43
67.73
70.55
73.41
76.93
81.69
87.87
95.03
102.05
107.35
109.32
106.72
99.24
87.87
74.92
63.52
56.67
56.08
61.49
70.79
80.97
89.29
94.33
96.18
95.96
94.99
94.20
93.89
93.99
94.40
95.15
96.20
97.05
96.63
93.43
86.17
74.46
59.13
42.10
25.56
11.22
-0.27
-9.25
-16.71
-23.60
-30.42
-36.87
-41.85
-43.63
-40.39
-30.94
-15.57
3.62
22.98
38.49
47.05
47.64
41.44
31.06
19.36
8.54
-0.18
-6.15
-8.86
-7.82
-2.90
5.09
14.26
22.03
26.06
25.22
20.04
12.40
4.68
-1.34
-5.02
-6.99
-8.59
-11.20
-15.70
-22.34
-30.75
-40.10
-49.27
-56.90
-61.52
-61.75
-56.56
-45.49
-28.88
-7.92
15.44
38.79
59.67
76.09
86.96
92.22
92.66
89.40
83.37
74.99
64.33
51.53
37.38
23.49
11.98
4.62
2.11
3.74
7.74
12.00
14.86
15.48
13.76
9.96
4.36
-2.94
-11.91
-22.34
-33.61
-44.61
-53.79
-59.45
-60.11
-54.83
-43.41
-26.46
-5.20
18.75
43.67
67.96
90.17
109.15
124.06
134.53
140.68
143.03
142.41
139.87
136.69
134.27
133.88
136.21
141.18
147.86
154.85
160.72
164.39
165.30
163.40
159.01
152.79
145.56
138.04
130.46
122.31
112.44
99.62
83.30
64.24
44.32
25.80
10.25
-2.17
-12.62
-22.80
-34.03
-46.63
-59.95
-72.92
-84.60
-94.38
-101.70
-105.77
-105.48
-100.02
-89.55
-75.81
-61.81
-50.91
-45.39
-45.57
-49.81
-55.53
-60.65
-64.63
-68.62
-74.60
-84.13
-97.34
-112.76
-128.02
-140.90
-150.22
-156.07
-159.40
-161.26
-162.21
-162.20
-160.92
-158.27
-154.66
-150.94
-148.03
-146.53
-146.66
-148.36
-151.62
-156.54
-163.12
-171.03
-179.42
-187.12
-193.20
-197.29
-199.67
-200.90
-201.27
-200.64
-198.63
-195.05
-190.02
-183.75
-176.01
-165.93
-152.37
-134.68
-113.45
-90.67
-69.02
-50.61
-36.09
-24.34
-13.17
-0.37
15.34
33.94
54.49
75.73
96.67
116.90
136.40
155.27
173.33
189.92
203.99
214.40
220.25
221.17
217.34
209.40
198.20
184.68
169.64
153.68
137.17
120.25
102.91
85.08
66.71
47.79
28.32
8.38
-11.81
-31.64
-49.99
-65.31
-75.95
-80.58
-78.71
-70.91
-58.72
-44.18
-29.40
-15.99
-4.84
3.80
10.16
14.70
17.83
19.80
20.61
20.12
18.15
14.66
9.89
4.33
-1.26
-6.11
-9.56
-11.30
-11.41
-10.40
-9.08
-8.44
-9.42
-12.78
-18.83
-27.37
-37.51
-47.80
-56.52
-62.08
-63.51
-60.73
-54.50
-45.99
-36.13
-25.22
-12.84
1.67
18.63
37.55
57.14
75.76
92.08
105.44
115.88
123.67
128.94
131.44
130.87
127.22
121.10
113.71
106.36
100.02
94.88
90.33
85.20
78.18
68.26
55.14
39.44
22.78
7.63
-3.21
-7.36
-3.69
7.15
22.82
39.97
55.33
66.60
72.87
74.47
72.28
67.11
59.37
49.15
36.57
22.14
6.68
-8.83
-23.65
-37.38
-49.89
-61.08
-70.61
-77.81
-81.94
-82.49
-79.56
-74.01
-67.14
-60.29
-54.26
-49.08
-44.09
-38.45
-31.64
-23.81
-15.66
-8.01
-1.31
4.69
10.79
17.90
26.46
36.09
45.64
53.64
58.89
60.94
60.16
57.47
53.80
49.64
44.90
39.13
31.92
23.24
13.53
3.55
-5.84
-13.93
-20.26
-24.70
-27.47
-29.17
-30.73
-33.14
-37.16
-42.81
-49.21
-54.58
-56.72
-53.67
-44.35
-29.11
-9.81
10.47
28.10
39.98
44.35
41.38
33.12
22.70
13.25
6.79
3.76
3.15
3.32
2.86
1.15
-1.65
-5.07
-8.87
-13.18
-18.40
-24.85
-32.49
-41.07
-50.42
-60.84
-72.98
-87.43
-103.94
-120.82
-134.95
-142.51
-140.24
-126.75
-103.17
-72.89
-40.37
-9.47
17.65
40.86
61.26
79.96
97.06
111.43
121.39
125.75
124.52
118.89
110.58
100.97
90.53
78.92
65.62
50.61
34.73
19.47
6.33
-3.92
-11.63
-18.17
-25.44
-35.14
-48.13
-63.98
-80.96
-96.40
-107.24
-110.85
-105.63
-91.49
-69.80
-43.16
-14.73
12.41
35.85
54.29
67.81
77.66
85.85
94.22
103.53
112.89
119.92
121.51
115.21
100.23
77.96
51.53
24.89
1.63
-15.70
-26.05
-29.70
-28.05
-23.25
-17.81
-14.17
-14.20
-18.70
-27.06
-37.35
-46.80
-52.64
-53.01
-47.58
-37.53
-25.01
-12.23
-0.75
8.79
16.42
22.36
26.68
29.33
30.50
31.00
32.18
35.52
41.84
50.70
60.28
67.88
70.84
67.55
57.99
43.71
27.08
10.25
-5.48
-20.02
-33.98
-48.05
-62.39
-76.41
-88.99
-98.89
-105.02
-106.66
-103.46
-95.46
-83.12
-67.38
-49.61
-31.48
-14.56
-0.05
11.39
19.68
25.07
28.05
29.27
29.64
30.32
32.69
37.97
46.71
58.22
70.38
80.06
83.97
79.86
67.24
47.67
24.09
-0.13
-22.17
-40.35
-54.17
-63.84
-69.72
-71.95
-70.38
-64.78
-55.29
-42.61
-27.92
-12.63
2.12
15.73
28.11
39.37
49.32
57.19
61.83
62.24
58.19
50.53
40.91
31.12
22.38
15.10
9.18
4.65
2.08
2.51
6.65
14.10
22.99
30.40
33.40
30.16
20.47
5.59
-12.45
-31.43
-49.39
-64.57
-75.26
-79.96
-77.64
-68.29
-53.08
-34.20
-14.32
4.17
19.63
31.35
39.35
44.11
46.25
46.53
45.81
45.11
45.45
47.47
51.16
55.75
60.11
63.26
64.88
65.27
64.86
63.62
60.63
54.30
43.00
25.77
2.94
-23.84
-51.84
-77.87
-98.83
-112.26
-116.56
-111.28
-97.23
-76.43
-51.94
-27.35
-6.04
9.55
18.50
21.55
20.57
17.73
14.52
11.25
7.20
1.33
-6.91
-17.14
-28.17
-38.47
-46.75
-52.25
-54.71
-54.28
-51.26
-46.22
-40.08
-34.20
-30.17
-29.31
-32.05
-37.52
-43.58
-47.37
-46.26
-38.75
-25.00
-6.83
12.92
31.25
45.78
55.30
59.79
60.11
57.52
53.22
48.05
42.31
35.91
28.64
20.46
11.75
3.25
-4.10
-9.56
-12.80
-14.02
-13.86
-13.17
-12.95
-14.21
-17.76
-23.86
-31.73
-39.41
-44.09
-43.15
-35.32
-21.46
-4.36
12.46
26.26
36.01
42.56
47.76
53.27
59.80
67.01
74.06
80.13
84.70
87.46
87.91
85.29
78.72
67.73
52.59
34.40
14.77
-4.82
-23.57
-41.43
-58.86
-76.18
-93.22
-109.21
-123.16
-134.26
-142.01
-145.96
-145.32
-138.85
-125.23
-103.84
-75.51
-42.62
-8.62
22.92
49.23
68.87
81.68
88.41
90.31
88.77
85.18
80.72
76.32
72.52
69.41
66.65
63.58
59.34
53.06
44.02
31.90
16.82
-0.71
-19.81
-39.48
-58.73
-76.67
-92.54
-105.63
-115.12
-120.12
-119.73
-113.41
-101.30
-84.26
-63.68
-40.93
-16.86
8.31
34.59
61.49
87.46
109.92
126.00
133.57
132.07
122.74
108.10
91.14
74.42
59.64
47.59
38.36
31.64
26.96
23.69
21.04
18.01
13.46
6.23
-4.52
-18.97
-36.38
-55.03
-72.54
-86.47
-94.95
-97.10
-93.21
-84.38
-72.08
-57.67
-42.26
-26.67
-11.66
1.93
13.19
21.40
26.35
28.44
28.64
28.07
27.53
27.23
26.81
25.66
23.44
20.32
16.98
14.17
12.24
10.82
8.83
4.91
-2.13
-12.80
-26.68
-42.43
-57.97
-70.86
-78.92
-80.82
-76.53
-67.29
-55.30
-42.87
-31.78
-22.82
-15.78
-9.75
-3.57
3.87
13.40
25.32
39.24
53.84
67.03
76.41
80.00
76.96
67.87
54.52
39.18
23.88
9.96
-1.96
-11.72
-19.31
-24.98
-29.30
-33.26
-37.89
-43.79
-50.44
-56.23
-58.87
-56.40
-48.04
-34.46
-17.49
0.66
18.14
33.80
47.08
57.68
65.17
69.03
68.89
64.97
58.45
51.39
46.14
44.39
46.31
50.32
53.70
53.84
49.50
41.30
31.28
21.70
13.75
7.01
-0.23
-9.94
-23.35
-40.26
-59.10
-77.42
-92.56
-102.35
-105.39
-101.34
-90.79
-75.01
-55.76
-34.91
-14.38
4.06
18.94
29.48
35.86
39.39
42.18
46.46
53.66
63.83
75.49
86.14
93.01
93.88
87.59
74.22
54.92
31.61
6.62
-17.78
-39.79
-58.34
-73.19
-84.68
-93.20
-98.84
-101.09
-99.06
-91.89
-79.23
-61.62
-40.50
-18.05
3.29
21.23
33.99
40.60
41.05
36.31
28.12
18.62
9.76
2.87
-1.55
-3.69
-3.99
-2.76
0.02
4.46
10.36
16.91
22.69
26.11
25.92
21.48
12.85
0.59
-14.26
-30.24
-45.34
-57.24
-63.70
-63.32
-56.03
-43.26
-27.52
-11.61
2.17
12.50
19.04
22.18
22.65
21.29
19.00
16.75
15.61
16.61
20.54
27.55
37.09
48.01
58.86
68.23
74.86
77.46
74.64
65.02
47.59
22.43
-8.92
-43.35
-76.65
-104.33
-122.59
-129.22
-124.05
-108.88
-86.94
-61.81
-36.52
-12.78
8.97
28.97
47.26
63.19
75.35
82.26
83.16
78.45
69.66
58.96
48.42
39.56
33.16
29.43
28.19
29.07
31.47
34.41
36.43
35.66
30.23
18.86
1.49
-20.27
-43.26
-63.40
-76.76
-80.61
-74.17
-58.69
-37.04
-12.75
10.85
31.37
47.51
58.92
65.70
68.04
66.09
60.10
50.68
38.85
25.88
12.85
0.26
-12.19
-25.51
-40.98
-59.72
-82.25
-108.16
-135.98
-163.17
-186.41
-202.36
-208.71
-205.09
-193.33
-176.81
-159.10
-142.57
-127.56
-112.67
-95.72
-75.05
-50.37
-22.92
5.04
30.98
52.75
68.97
79.17
83.68
83.51
80.16
75.35
70.79
67.94
67.76
70.56
75.79
82.09
87.64
90.82
90.81
88.00
83.73
79.66
76.91
75.64
74.96
73.38
69.30
61.56
49.86
35.04
19.13
5.13
-3.60
-4.23
4.71
22.89
48.34
78.10
109.00
138.35
164.29
185.72
202.30
214.28
222.44
227.99
232.38
237.09
243.18
