1694473107.00
64.000000
-0.00
-0.00
-0.00
-0.00
-0.00
-0.00
-0.00
-0.00
-0.00
-0.00
0.00
0.01
0.01
-0.00
-0.03
-0.05
-0.05
0.00
0.13
0.36
0.66
1.01
1.37
1.72
2.06
2.40
2.79
3.24
3.80
4.42
5.06
5.66
6.20
6.68
7.15
7.68
8.31
9.14
10.09
11.04
11.88
12.56
13.14
13.76
14.65
15.96
17.91
20.32
22.90
25.38
27.58
29.57
31.68
34.32
37.81
42.54
48.15
54.10
59.83
64.97
69.58
74.14
79.34
85.71
93.76
103.00
112.62
121.73
129.77
136.75
143.30
150.75
157.77
166.64
177.95
191.79
206.97
220.57
228.25
225.36
208.53
176.87
132.76
80.05
23.07
-34.94
-92.44
-149.16
-205.23
-260.37
-313.74
-363.87
-409.83
-450.91
-486.50
-515.74
-537.23
-549.22
-549.96
-538.37
-514.21
-478.67
-433.88
-382.45
-327.02
-269.84
-212.63
-156.66
-102.95
-52.37
-5.90
35.58
71.43
101.35
125.50
144.38
158.69
169.15
176.37
180.75
182.57
182.07
179.51
175.23
169.65
163.18
156.15
148.81
141.30
133.69
126.02
118.33
110.69
103.16
95.81
88.69
81.83
75.25
68.95
62.94
57.25
51.86
46.80
42.06
37.61
33.45
29.56
25.93
22.58
19.52
16.77
14.31
12.14
10.21
8.49
6.96
5.59
4.41
3.41
2.60
1.97
1.47
1.04
0.63
0.21
-0.23
-0.63
-0.94
-1.11
-1.15
-1.12
-1.14
-1.32
-1.72
-2.28
-2.88
-3.35
-3.55
-3.48
-3.29
-3.21
-3.48
-4.21
-5.32
-6.52
-7.49
-7.96
-7.92
-7.60
-7.42
-7.80
-8.91
-10.63
-12.53
-14.09
-14.96
-15.07
-14.70
-14.31
-14.36
-15.19
-16.99
-19.80
-23.29
-26.64
-28.47
-27.18
-21.62
-11.74
1.11
14.52
25.89
33.46
36.85
36.98
35.38
33.35
31.56
30.02
28.51
26.96
25.64
24.93
25.08
25.96
27.11
27.96
28.11
27.51
26.48
25.55
25.11
25.19
25.38
25.01
23.37
20.13
15.57
10.24
5.02
0.72
-2.30
-4.20
-5.49
-6.80
-8.48
-10.50
-12.53
-14.12
-14.99
-15.14
-14.85
-14.43
-14.10
-13.88
-13.66
-13.31
-12.78
-12.14
-11.52
-11.00
-10.57
-10.10
-9.46
-8.57
-7.51
-6.43
-5.56
-5.03
-4.85
-4.91
-5.03
-5.11
-5.13
-5.18
-5.30
-5.49
-5.68
-5.76
-5.66
-5.38
-5.01
-4.63
-4.38
-4.29
-4.39
-4.67
-5.09
-5.61
-6.10
-6.40
-6.32
-5.68
-4.34
-2.29
0.28
3.08
5.72
7.88
9.46
10.56
11.23
11.70
12.17
12.70
13.26
13.68
13.88
13.84
13.58
13.14
12.57
11.84
10.96
10.02
9.16
8.50
8.07
7.69
7.12
6.21
4.89
3.30
1.68
0.28
-0.71
-1.23
-1.34
-1.24
-1.14
-1.29
-1.87
-2.94
-4.41
-6.06
-7.65
-8.96
-9.93
-10.66
-11.38
-12.34
-13.72
-15.56
-17.68
-19.72
-21.27
-21.91
-21.35
-19.54
-16.64
-12.99
-9.05
-5.20
-1.68
1.40
4.05
6.31
8.17
9.60
10.57
11.17
11.53
11.84
12.19
12.59
12.98
13.24
13.37
13.40
13.42
13.44
13.44
13.37
13.17
12.87
12.45
11.92
11.23
10.29
9.07
7.59
5.93
4.22
2.57
1.03
-0.35
-1.57
-2.62
-3.54
-4.40
-5.29
-6.26
-7.34
-8.53
-9.82
-11.25
-12.90
-14.76
-16.69
-18.38
-19.43
-19.47
-18.36
-16.22
-13.41
-10.35
-7.41
-4.78
-2.47
-0.41
1.50
3.26
4.81
6.02
6.79
7.13
7.10
6.84
6.49
6.18
5.99
5.97
6.12
6.45
6.95
7.53
8.10
8.53
8.71
8.56
8.11
7.41
6.56
5.66
4.78
3.94
3.11
2.24
1.30
0.31
-0.75
-1.86
-3.04
-4.32
-5.75
-7.34
-9.06
-10.87
-12.65
-14.29
-15.63
-16.51
-16.77
-16.24
-14.87
-12.71
-9.98
-7.00
-4.11
-1.56
0.52
2.17
3.46
4.47
5.18
5.56
5.55
5.21
4.70
4.23
4.00
4.05
4.29
4.57
4.69
4.61
4.33
4.00
3.72
3.51
3.30
2.99
2.50
1.82
1.08
0.41
-0.05
-0.23
-0.17
0.03
0.19
0.13
-0.30
-1.11
-2.27
-3.74
-5.58
-7.96
-11.10
-15.15
-20.04
-25.48
-31.01
-36.19
-40.63
-44.04
-46.15
-46.74
-45.75
-43.41
-40.36
-37.54
-35.92
-36.17
-38.39
-42.10
-46.38
-50.17
-52.57
-53.14
-51.90
-49.41
-46.43
-43.70
-41.56
-39.85
-37.84
-34.46
-28.49
-18.84
-4.85
13.45
35.15
58.46
81.09
100.79
116.08
126.64
133.17
136.79
138.29
137.71
134.49
128.11
118.70
107.35
95.83
85.80
78.16
72.70
68.34
63.69
57.82
50.66
43.00
36.15
31.32
29.16
29.42
31.09
32.73
33.09
31.50
28.12
23.61
18.80
14.24
10.10
6.29
2.73
-0.50
-3.09
-4.72
-5.19
-4.59
-3.20
-1.34
0.80
3.22
6.09
9.61
13.86
18.68
23.57
27.76
30.46
31.07
29.43
25.86
21.03
15.62
10.04
4.34
-1.73
-8.42
-15.81
-23.68
-31.67
-39.41
-46.66
-53.32
-59.35
-64.72
-69.37
-73.25
-76.40
-78.89
-80.80
-82.16
-82.95
-83.19
-82.92
-82.32
-81.46
-80.36
-78.82
-76.61
-73.60
-69.84
-65.57
-61.09
-56.62
-52.17
-47.66
-43.03
-38.40
-34.06
-30.42
-27.84
-26.42
-26.01
-26.23
-26.67
-27.11
-27.55
-28.26
-29.60
-31.86
-35.06
-38.94
-43.02
-46.80
-49.90
-52.13
-53.55
-54.37
-54.94
-55.62
-56.69
-58.30
-60.40
-62.71
-64.65
-65.57
-64.85
-62.14
-57.46
-51.11
-43.37
-34.26
-23.49
-10.56
4.73
21.97
40.05
57.35
72.31
83.94
92.09
97.28
100.33
101.89
102.26
101.42
99.30
95.98
91.76
87.03
82.09
77.05
71.82
66.26
60.31
54.06
47.69
41.43
35.45
29.86
24.73
20.09
15.89
12.03
8.35
4.72
1.19
-2.04
-4.62
-6.21
-6.69
-6.13
-4.82
-3.09
-1.15
0.90
3.06
5.26
7.35
9.01
9.97
10.05
9.28
7.89
6.26
4.74
3.60
2.95
2.77
2.97
3.41
3.95
4.49
4.95
5.31
5.49
5.43
5.01
4.15
2.84
1.22
-0.48
-1.95
-2.90
-3.15
-2.72
-1.81
-0.69
0.33
0.98
1.11
0.68
-0.26
-1.51
-2.77
-3.75
-4.18
-4.00
-3.33
-2.47
-1.77
-1.47
-1.61
-2.04
-2.55
-2.93
-3.10
-3.12
-3.10
-3.07
-2.99
-2.75
-2.27
-1.58
-0.79
-0.03
0.65
1.35
2.23
3.42
4.89
6.43
7.70
8.42
8.47
8.02
7.34
6.75
6.44
6.42
6.54
6.55
6.29
5.71
4.92
4.11
3.45
3.07
3.02
3.28
3.82
4.60
5.56
6.61
7.70
8.86
10.13
11.56
13.14
14.76
16.21
17.26
17.70
17.45
16.56
15.25
13.88
12.94
12.83
13.78
15.57
17.72
19.53
20.47
20.35
19.37
18.00
16.68
15.68
15.12
14.93
15.01
15.23
15.38
15.26
14.62
13.31
11.34
8.89
6.27
3.83
1.89
0.62
0.06
0.06
0.35
0.60
0.57
0.21
-0.33
-0.76
-0.83
-0.45
0.27
1.07
1.67
1.89
1.68
1.07
0.16
-0.95
-2.17
-3.46
-4.76
-6.02
-7.19
-8.25
-9.18
-10.04
-10.96
-12.06
-13.47
-15.19
-17.06
-18.81
-20.13
-20.80
-20.81
-20.37
-19.84
-19.60
-19.88
-20.63
-21.56
-22.18
-22.12
-21.22
-19.68
-17.91
-16.38
-15.34
-14.77
-14.42
-14.02
-13.42
-12.71
-12.06
-11.59
-11.31
-11.07
-10.69
-10.08
-9.32
-8.63
-8.23
-8.29
-8.78
-9.52
-10.21
-10.62
-10.64
-10.37
-10.01
-9.81
-9.92
-10.35
-10.96
-11.54
-11.91
-11.96
-11.71
-11.32
-10.99
-10.94
-11.28
-12.01
-12.96
-13.87
-14.46
-14.54
-14.04
-13.05
-11.79
-10.46
-9.27
-8.30
-7.45
-6.58
-5.49
-4.14
-2.61
-1.15
0.01
0.72
1.00
1.02
0.94
0.84
0.69
0.52
0.39
0.45
0.80
1.42
2.09
2.57
2.66
2.33
1.70
0.91
0.07
-0.82
-1.78
-2.81
-3.83
-4.80
-5.72
-6.62
-7.62
-8.72
-9.86
-10.84
-11.46
-11.62
-11.25
-10.47
-9.37
-8.06
-6.61
-5.04
-3.33
-1.51
0.42
2.38
4.25
5.93
7.30
8.30
8.93
9.25
9.37
9.38
9.30
9.09
8.63
7.84
6.77
5.59
4.53
3.77
3.34
3.13
2.93
2.57
2.00
1.32
0.69
0.20
-0.11
-0.35
-0.67
-1.18
-1.92
-2.82
-3.75
-4.57
-5.21
-5.72
-6.16
-6.58
-6.92
-7.03
-6.70
-5.84
-4.50
-2.91
-1.36
-0.08
0.84
1.46
1.92
2.38
2.90
3.45
3.96
4.38
4.70
4.92
5.10
5.28
5.48
5.71
5.93
6.09
6.13
6.03
5.79
5.47
5.10
4.75
4.45
4.18
3.88
3.49
2.94
2.24
1.48
0.82
0.40
0.29
0.42
0.65
0.75
0.55
-0.04
-0.97
-2.09
-3.17
-3.96
-4.27
-4.03
-3.30
-2.31
-1.29
-0.43
0.23
0.78
1.33
1.97
2.70
3.45
4.19
4.86
5.42
5.82
5.99
5.89
5.58
5.18
4.88
4.81
4.99
5.32
5.66
5.87
5.85
5.59
5.06
4.30
3.39
2.42
1.52
0.79
0.26
-0.15
-0.57
-1.12
-1.84
-2.67
-3.50
-4.22
-4.75
-5.10
-5.37
-5.66
-6.18
-7.03
-8.26
-9.74
-11.15
-12.11
-12.32
-11.67
-10.28
-8.49
-6.61
-4.91
-3.43
-2.05
-0.59
1.09
3.02
5.16
7.40
9.66
11.95
14.29
16.72
19.25
21.73
23.93
25.62
26.63
27.03
27.08
27.12
27.46
28.16
29.02
29.65
29.59
28.44
26.04
22.42
17.86
12.85
7.96
3.78
0.72
-1.13
-2.05
-2.58
-3.31
-4.60
-6.52
-8.81
-11.09
-13.12
-14.89
-16.66
-18.80
-21.64
-25.36
-29.93
-35.19
-40.83
-46.54
-52.05
-57.31
-62.48
-68.10
-74.82
-83.29
-93.83
-106.24
-119.86
-133.72
-146.87
-158.68
-168.99
-178.14
-186.87
-196.06
-206.45
-218.40
-231.60
-244.98
-256.95
-265.84
-270.44
-270.42
-266.30
-259.13
-250.09
-240.10
-229.75
-219.46
-209.63
-200.67
-192.94
-186.64
-181.83
-178.61
-177.20
-177.89
-180.88
-185.87
-191.97
-197.82
-201.89
-202.91
-200.14
-193.41
-183.06
-169.74
-154.23
-137.29
-119.57
-101.56
-83.60
-65.94
-48.82
-32.51
-17.24
-3.03
10.31
23.18
36.08
49.32
62.93
76.65
90.10
102.90
114.99
126.56
138.00
149.80
162.38
176.02
190.71
206.07
221.19
234.66
244.83
250.39
250.84
246.77
239.64
231.08
222.18
213.15
203.49
192.62
180.48
167.77
155.61
144.94
135.96
127.94
119.44
108.98
95.59
79.29
61.11
42.87
26.75
14.69
7.94
6.81
10.67
18.25
28.00
38.45
48.52
57.53
65.22
71.62
76.92
81.31
84.99
88.05
90.57
92.61
94.23
95.46
96.28
96.63
96.53
96.16
95.86
96.12
97.34
99.63
102.70
105.94
108.64
110.23
110.46
109.41
107.35
104.56
101.25
97.48
93.23
88.41
82.99
77.07
70.84
64.62
58.71
53.34
48.52
44.05
39.56
34.59
28.82
22.16
14.90
7.73
1.69
-2.17
-3.02
-0.54
4.94
12.64
21.61
31.00
40.27
49.13
57.43
64.98
71.56
76.96
81.15
84.26
86.63
88.66
90.67
92.78
94.94
96.94
98.52
99.49
99.75
99.30
98.18
96.41
93.94
90.65
86.45
81.34
75.47
69.10
62.58
56.20
50.10
44.24
38.48
32.63
26.66
20.66
14.89
9.54
4.69
0.14
-4.46
-9.51
-15.37
-22.23
-30.03
-38.46
-46.91
-54.52
-60.28
-63.25
-62.85
-59.06
-52.43
-43.95
-34.76
-25.78
-17.57
-10.30
-3.91
1.77
6.81
11.24
15.00
18.10
20.58
22.50
23.92
24.88
25.40
25.53
25.41
25.26
25.28
25.60
26.20
26.83
27.18
26.90
25.80
23.88
21.35
18.57
15.89
13.58
11.71
10.22
8.93
7.64
6.22
4.59
2.76
0.81
-1.22
-3.34
-5.66
-8.39
-11.77
-15.97
-20.93
-26.29
-31.38
-35.37
-37.51
-37.39
-35.03
-30.82
-25.36
-19.21
-12.81
-6.44
-0.35
5.20
9.93
13.67
16.40
18.27
19.54
20.40
20.95
21.15
20.96
20.41
19.59
18.69
17.87
17.22
16.76
16.40
15.95
15.25
14.15
12.58
10.55
8.12
5.38
2.39
-0.77
-4.00
-7.21
-10.31
-13.25
-16.07
-18.87
-21.75
-24.78
-27.98
-31.30
-34.65
-37.97
-41.29
-44.72
-48.44
-52.63
-57.27
-62.08
-66.46
-69.59
-70.64
-69.06
-64.71
-57.98
-49.54
-40.21
-30.68
-21.39
-12.60
-4.46
2.90
9.29
14.59
18.81
22.12
24.80
27.12
29.21
31.06
32.50
33.39
33.61
33.11
31.91
30.08
27.75
25.15
22.61
20.49
19.08
18.39
18.17
17.93
17.09
15.15
11.84
7.20
1.53
-4.71
-10.97
-16.68
-21.33
-24.55
-26.19
-26.46
-25.90
-25.30
-25.43
-26.74
-29.14
-31.94
-34.17
-34.82
-33.32
-29.60
-24.17
-17.81
-11.37
-5.50
-0.55
3.45
6.71
9.48
11.93
14.11
15.94
17.31
18.18
18.62
18.77
18.81
18.79
18.71
18.50
18.13
17.62
17.08
16.58
16.13
15.61
14.85
13.66
11.92
9.66
7.02
4.18
1.33
-1.48
-4.23
-6.94
-9.63
-12.27
-14.90
-17.60
-20.58
-24.06
-28.15
-32.75
-37.43
-41.48
-44.08
-44.53
-42.49
-38.02
-31.66
-24.14
-16.32
-8.92
-2.45
2.81
6.78
9.55
11.31
12.25
12.57
12.42
11.91
11.14
10.24
9.35
8.64
8.21
8.04
8.02
7.98
7.77
7.32
6.67
5.82
4.75
3.36
1.51
-0.90
-3.83
-7.16
-10.68
-14.19
-17.59
-20.86
-24.03
-27.12
-30.22
-33.39
-36.72
-40.24
-43.73
-46.71
-48.46
-48.23
-45.49
-40.19
-32.80
-24.23
-15.48
-7.46
-0.74
4.45
8.12
10.46
11.66
11.97
11.60
10.82
9.85
8.90
8.05
7.33
6.65
5.91
4.99
3.77
2.21
0.34
-1.78
-3.99
-6.19
-8.25
-10.10
-11.58
-12.49
-12.47
-11.19
-8.48
-4.55
0.01
4.31
7.42
8.62
7.57
4.38
-0.49
-6.26
-11.99
-16.72
-19.58
-20.04
-17.99
-13.82
-8.27
-2.20
3.64
8.76
13.03
16.54
19.50
22.08
24.34
26.20
27.49
28.09
27.93
27.09
25.75
24.11
22.34
20.53
18.76
17.09
15.63
14.48
13.69
13.15
12.70
12.08
11.07
9.51
7.35
4.63
1.50
-1.88
-5.31
-8.65
-11.90
-15.16
-18.66
-22.61
-27.18
-32.39
-38.10
-43.99
-49.48
-53.80
-56.04
-55.44
-51.66
-44.97
-36.25
-26.70
-17.50
-9.47
-2.90
2.32
6.53
10.01
12.89
15.18
16.85
17.93
18.47
18.61
18.45
18.10
17.65
17.17
16.72
16.34
16.00
15.61
15.04
14.16
12.87
11.16
9.07
6.68
4.09
1.35
-1.50
-4.47
-7.50
-10.54
-13.50
-16.25
-18.76
-21.02
-23.15
-25.30
-27.72
-30.59
-33.98
-37.69
-41.20
-43.72
-44.36
-42.46
-37.81
-30.77
-22.16
-12.98
-4.15
3.72
10.33
15.64
19.71
22.64
24.55
25.57
25.86
25.62
25.01
24.20
23.32
22.46
21.68
20.96
20.28
19.58
18.82
17.91
16.76
15.28
13.40
11.17
8.69
6.12
3.59
1.11
-1.40
-4.04
-6.89
-9.93
-13.04
-16.11
-19.09
-21.96
-24.76
-27.47
-30.13
-32.81
-35.71
-39.08
-43.04
-47.37
-51.41
-54.12
-54.44
-51.64
-45.70
-37.30
-27.63
-17.94
-9.24
-2.01
3.69
8.05
11.29
13.55
14.87
15.29
14.96
14.15
13.20
12.33
11.61
10.92
10.02
8.78
7.21
5.53
4.02
2.95
2.46
2.60
3.35
4.62
6.32
8.28
10.24
11.87
12.85
12.95
12.05
10.14
7.24
3.39
-1.37
-7.06
-13.60
-20.89
-28.60
-36.23
-42.98
-47.88
-49.87
-48.07
-42.09
-32.23
-19.52
-5.61
7.66
18.71
26.59
31.13
32.83
32.64
31.50
30.17
29.05
28.24
27.68
27.26
26.87
26.43
25.88
25.14
24.15
22.89
21.42
19.84
18.24
16.65
15.01
13.21
11.12
8.72
6.09
3.38
0.78
-1.66
-4.01
-6.42
-9.05
-11.94
-14.95
-17.89
-20.55
-22.85
-24.90
-26.95
-29.31
-32.25
-35.81
-39.74
-43.43
-46.02
-46.55
-44.31
-39.04
-31.13
-21.47
-11.23
-1.53
6.82
13.49
18.50
22.12
24.60
26.20
27.05
27.28
27.02
26.41
25.58
24.65
23.66
22.64
21.55
20.36
19.01
17.48
15.75
13.85
11.82
9.68
7.48
5.17
2.69
-0.03
-3.05
-6.33
-9.77
-13.22
-16.55
-19.66
-22.55
-25.26
-27.88
-30.57
-33.51
-36.89
-40.82
-45.16
-49.39
-52.58
-53.66
-51.73
-46.49
-38.39
-28.52
-18.22
-8.61
-0.33
6.49
12.07
16.69
20.51
23.57
25.84
27.37
28.27
28.71
28.89
28.91
28.82
28.59
28.12
27.30
26.02
24.21
21.93
19.32
16.59
13.90
11.33
8.79
6.13
3.14
-0.25
-3.98
-7.83
-11.51
-14.82
-17.70
-20.26
-22.73
-25.40
-28.52
-32.26
-36.59
-41.23
-45.60
-48.83
-49.99
-48.31
-43.48
-35.81
-26.16
-15.67
-5.47
3.65
11.30
17.44
22.27
26.01
28.82
30.80
31.98
32.41
32.18
31.42
30.32
29.05
27.70
26.32
24.87
23.30
21.59
19.80
18.00
16.24
14.53
12.78
10.86
8.62
6.00
2.99
-0.34
-3.89
-7.54
-11.17
-14.68
-17.96
-20.94
-23.58
-25.97
-28.30
-30.85
-33.87
-37.37
-41.06
-44.24
-45.99
-45.43
-42.01
-35.75
-27.25
-17.50
-7.55
1.78
10.01
17.00
22.77
27.34
30.67
32.73
33.57
33.40
32.54
31.32
29.94
28.42
26.63
24.45
21.86
18.97
16.03
13.25
10.74
8.43
6.18
3.85
1.44
-0.93
-3.03
-4.72
-5.95
-6.88
-7.73
-8.72
-9.94
-11.38
-12.90
-14.37
-15.70
-16.89
-18.07
-19.45
-21.32
-23.93
-27.45
-31.75
-36.35
-40.38
-42.83
-42.72
-39.48
-33.13
-24.34
-14.18
-3.90
5.46
13.25
19.27
23.64
26.67
28.63
29.74
30.15
29.99
29.42
28.63
27.82
27.07
26.38
25.64
24.75
23.67
22.48
21.29
20.20
19.19
18.17
16.95
15.39
13.44
11.12
8.54
5.82
3.06
0.32
-2.38
-5.03
-7.64
-10.25
-12.88
-15.54
-18.19
-20.78
-23.31
-25.89
-28.75
-32.17
-36.35
-41.23
-46.32
-50.76
-53.43
-53.35
-49.95
-43.30
-34.09
-23.43
-12.54
-2.40
6.38
13.57
19.20
23.42
26.36
28.14
28.88
28.74
27.94
26.75
25.45
24.24
23.20
22.30
21.42
20.46
19.41
18.34
17.36
16.54
15.80
14.89
13.53
11.56
8.99
6.06
3.06
0.19
-2.51
-5.20
-8.04
-11.09
-14.23
-17.24
-19.86
-21.98
-23.65
-25.09
-26.63
-28.64
-31.39
-34.94
-39.01
-42.92
-45.69
-46.25
-43.83
-38.17
-29.71
-19.42
-8.57
1.65
10.45
17.49
22.84
26.75
29.47
31.18
31.96
31.89
31.17
30.09
28.95
27.99
27.29
26.78
26.32
25.82
25.23
24.59
23.90
23.05
21.85
20.13
17.80
14.95
11.78
8.57
5.53
2.75
0.18
-2.30
-4.78
-7.25
-9.63
-11.83
-13.89
-16.01
-18.57
-22.03
-26.75
-32.86
-40.19
-48.19
-56.03
-62.67
-67.09
-68.48
-66.43
-61.06
-53.00
-43.17
-32.61
-22.19
-12.48
-3.75
3.92
10.62
16.41
21.35
25.44
28.69
31.10
32.71
33.63
34.03
34.05
33.84
33.47
32.96
32.30
31.50
30.58
29.53
28.32
26.85
25.00
22.69
19.96
16.92
13.78
10.70
7.73
4.84
1.87
-1.27
-4.63
-8.13
-11.61
-14.90
-17.89
-20.59
-23.14
-25.78
-28.86
-32.64
-37.16
-42.11
-46.73
-49.98
-50.76
-48.33
-42.54
-33.93
-23.60
-12.82
-2.71
6.01
13.10
18.65
22.93
26.19
28.62
30.29
31.25
31.52
31.17
30.26
28.91
27.30
25.63
24.12
22.93
22.10
21.52
20.96
20.12
18.76
16.80
14.37
11.70
9.06
6.59
4.21
1.71
-1.14
-4.45
-8.14
-11.99
-15.72
-19.12
-22.17
-24.97
-27.78
-30.86
-34.45
-38.58
-43.00
-47.17
-50.23
-51.29
-49.64
-45.02
-37.75
-28.65
-18.79
-9.22
-0.76
6.08
11.14
14.47
16.32
16.97
16.74
15.89
14.65
13.25
11.97
11.08
10.84
11.36
12.55
14.13
15.74
17.04
17.89
18.34
18.53
18.58
18.41
17.73
16.15
13.36
9.33
4.44
-0.56
-4.82
-7.66
-8.93
-9.09
-9.13
-10.25
-13.46
-19.14
-26.78
-34.99
-41.70
-44.56
-41.63
-31.96
-15.96
4.43
26.20
45.93
60.76
69.07
70.86
67.48
61.03
53.55
46.44
40.25
34.85
29.87
25.06
20.42
16.11
12.21
8.63
5.14
1.54
-2.13
-5.56
-8.30
-10.04
-10.84
-11.16
-11.74
-13.26
-16.07
-20.03
-24.60
-29.03
-32.71
-35.38
-37.13
-38.38
-39.60
-41.18
-43.34
-46.07
-49.20
-52.40
-55.18
-56.91
-56.90
-54.55
-49.56
-42.11
-32.83
-22.65
-12.55
-3.28
4.78
11.60
17.36
22.22
26.26
29.40
31.53
32.61
32.80
32.42
31.89
31.56
31.60
31.88
32.12
31.95
31.13
29.60
27.50
24.98
22.11
18.85
15.04
10.59
5.52
-0.02
-5.71
-11.20
-16.15
-20.29
-23.48
-25.77
-27.40
-28.76
-30.25
-32.15
-34.49
-36.98
-39.10
-40.12
-39.33
-36.15
-30.35
-22.12
-12.12
-1.33
9.19
18.57
26.28
32.15
36.28
38.89
40.19
40.38
39.68
38.37
36.75
35.11
33.65
32.45
31.47
30.64
29.86
29.09
28.32
27.50
26.56
25.35
23.69
21.39
18.31
14.44
9.91
4.97
-0.04
-4.80
-9.10
-12.88
-16.30
-19.65
-23.30
-27.57
-32.54
-38.02
-43.39
-47.79
-50.23
-49.90
-46.40
-39.92
-31.20
-21.30
-11.33
-2.15
5.74
12.22
17.40
21.41
24.34
26.19
27.00
26.93
26.31
25.53
24.96
24.77
24.90
25.11
25.10
24.73
24.02
23.16
22.40
21.92
21.68
21.49
21.01
19.89
17.94
15.14
11.68
7.79
3.67
-0.62
-5.15
-10.09
-15.58
-21.71
-28.47
-35.75
-43.35
-50.89
-57.77
-63.17
-66.17
-65.93
-62.04
-54.64
-44.58
-33.10
-21.60
-11.22
-2.65
3.87
8.36
10.91
11.55
10.36
7.51
3.43
-1.28
-5.98
-10.19
-13.67
-16.41
-18.42
-19.60
-19.64
-18.08
-14.56
-9.05
-2.03
5.54
12.39
17.33
19.64
19.30
16.97
13.72
10.62
8.30
6.88
6.00
5.13
3.91
2.33
0.77
-0.12
0.24
2.23
5.82
10.62
16.00
21.32
26.09
29.99
32.90
34.73
35.40
34.87
33.21
30.67
27.64
24.52
21.56
18.75
15.87
12.61
8.75
4.34
-0.33
-4.77
-8.48
-11.17
-12.84
-13.86
-14.79
-16.21
-18.43
-21.43
-24.82
-28.06
-30.60
-32.14
-32.67
-32.52
-32.24
-32.45
-33.63
-35.85
-38.63
-40.95
-41.58
-39.51
-34.45
-26.95
-18.24
-9.71
-2.39
3.45
8.23
12.77
17.77
23.44
29.42
34.90
39.00
41.09
40.98
39.00
35.78
32.13
28.83
26.54
25.70
26.50
28.80
32.11
35.61
38.34
39.38
38.14
34.57
29.15
22.84
16.84
12.16
9.42
8.59
9.03
9.75
9.67
7.96
4.27
-1.26
-7.95
-14.77
-20.53
-24.14
-24.91
-22.76
-18.23
-12.38
-6.37
-1.10
3.02
6.10
8.60
11.02
13.75
16.95
20.55
24.29
27.80
30.65
32.41
32.80
31.74
29.34
25.89
21.77
17.28
12.64
8.02
3.49
-0.86
-4.98
-8.82
-12.39
-15.75
-18.96
-22.08
-25.16
-28.27
-31.46
-34.73
-37.99
-40.92
-42.97
-43.44
-41.69
-37.37
-30.67
-22.28
-13.25
-4.63
2.80
8.75
13.33
16.87
19.69
21.95
23.62
24.57
24.71
24.02
22.58
20.58
18.23
15.75
13.23
10.68
7.97
4.94
1.53
-2.22
-6.07
-9.77
-13.10
-16.00
-18.58
-21.07
-23.70
-26.71
-30.24
-34.40
-39.08
-43.92
-48.21
-50.99
-51.32
-48.57
-42.68
-34.24
-24.32
-14.17
-4.84
2.97
9.01
13.27
15.87
16.90
16.45
14.70
12.02
8.88
5.79
3.06
0.77
-1.30
-3.49
-6.08
-9.12
-12.38
-15.45
-17.88
-19.32
-19.65
-19.04
-17.89
-16.77
-16.27
-16.80
-18.49
-21.04
-23.75
-25.65
-25.72
-23.17
-17.78
-9.98
-0.78
8.52
16.72
23.06
27.33
29.80
30.96
31.25
30.92
30.09
28.81
27.20
25.51
24.00
22.86
22.09
21.46
20.68
19.44
17.59
15.15
12.22
8.95
5.41
1.63
-2.40
-6.65
-11.09
-15.71
-20.58
-25.81
-31.45
-37.35
-43.01
-47.55
-49.97
-49.46
-45.67
-38.93
-30.12
-20.39
-10.87
-2.37
4.70
10.29
14.53
17.58
19.54
20.48
20.48
19.71
18.45
17.08
15.88
15.00
14.35
13.70
12.71
11.17
9.07
6.59
4.06
1.72
-0.32
-2.16
-4.10
-6.50
-9.69
-13.89
-19.07
-24.88
-30.67
-35.50
-38.38
-38.50
-35.49
-29.56
-21.47
-12.30
-3.12
5.21
12.24
17.83
22.01
24.86
26.44
26.86
26.25
24.87
23.00
20.94
18.86
16.82
14.75
12.55
10.15
7.53
4.79
2.01
-0.69
-3.25
-5.68
-8.05
-10.51
-13.30
-16.65
-20.78
-25.75
-31.29
-36.72
-41.01
-43.02
-41.84
-37.14
-29.32
-19.46
-8.96
0.86
9.06
15.27
19.54
22.23
23.74
24.48
24.75
24.87
25.06
25.48
26.19
27.09
27.96
28.48
28.29
27.12
24.86
21.67
17.93
14.16
10.81
8.14
6.07
4.26
2.29
-0.23
-3.52
-7.71
-12.80
-18.70
-25.10
-31.31
-36.30
-38.93
-38.33
-34.27
-27.32
-18.70
-9.81
-1.75
4.87
10.03
13.96
16.94
19.05
20.24
20.45
19.70
18.23
16.41
14.62
13.18
12.20
11.63
11.28
10.88
10.20
9.09
7.50
5.46
3.07
0.44
-2.37
-5.35
-8.51
-11.92
-15.64
-19.77
-24.35
-29.30
-34.29
-38.64
-41.46
-41.77
-38.93
-32.82
-24.00
-13.56
-2.79
7.18
15.63
22.30
27.31
30.93
33.41
34.97
35.73
35.85
35.47
34.82
34.05
33.25
32.40
31.41
30.22
28.88
27.54
26.37
25.40
24.47
23.23
21.33
18.61
15.18
11.35
7.46
3.75
0.26
-3.15
-6.71
-10.67
-15.24
-20.47
-26.18
-31.81
-36.42
-38.87
-38.24
-34.16
-27.05
-17.97
-8.23
1.02
9.13
15.93
21.48
25.88
29.10
31.07
31.80
31.47
30.49
29.26
28.11
27.18
26.38
25.55
24.50
23.18
21.63
20.02
18.47
17.07
15.72
14.21
12.27
9.69
6.41
2.59
-1.47
-5.46
-9.14
-12.50
-15.71
-19.09
-22.93
-27.42
-32.44
-37.58
-42.15
-45.25
-46.02
-43.89
-38.76
-31.12
-21.90
-12.23
-3.13
4.73
11.08
15.94
19.46
21.78
22.96
23.10
22.41
21.24
19.99
18.99
18.36
18.01
17.73
17.26
16.45
15.32
13.98
12.59
11.27
10.01
8.69
7.07
4.88
1.97
-1.62
-5.64
-9.70
-13.41
-16.61
-19.35
-21.94
-24.75
-28.11
-32.19
-36.90
-41.98
-46.94
-51.09
-53.64
-53.84
-51.16
-45.54
-37.40
-27.64
-17.35
-7.49
1.24
8.54
14.37
18.76
21.79
23.51
24.07
23.74
22.96
22.18
21.75
21.79
22.14
22.51
22.61
22.30
21.60
20.66
19.59
18.37
16.89
14.94
12.43
9.41
6.12
2.87
-0.09
-2.65
-4.94
-7.23
-9.90
-13.27
-17.47
-22.36
-27.47
-32.02
-35.10
-35.88
-33.84
-28.99
-21.88
-13.41
-4.64
3.55
10.61
16.36
20.89
24.31
26.69
27.99
28.16
27.26
25.57
23.52
21.55
19.97
18.81
17.89
16.93
15.70
14.12
12.29
10.40
8.62
6.99
5.46
3.82
1.85
-0.62
-3.62
-7.01
-10.54
-13.92
-16.98
-19.69
-22.16
-24.60
-27.20
-30.10
-33.41
-37.11
-41.08
-44.93
-47.98
-49.34
-48.16
-43.93
-36.74
-27.32
-16.83
-6.51
2.70
10.31
16.28
20.80
24.11
26.38
27.67
28.07
27.77
27.01
26.09
25.25
24.57
23.96
23.27
22.35
21.15
19.79
18.43
17.23
16.21
15.24
14.03
12.24
9.65
6.22
2.15
-2.21
-6.48
-10.39
-13.83
-16.89
-19.75
-22.60
-25.65
-29.05
-32.95
-37.41
-42.29
-47.15
-51.21
-53.50
-53.14
-49.66
-43.20
-34.56
-24.91
-15.46
-7.18
-0.53
4.43
7.97
10.42
12.03
12.92
13.11
12.62
11.63
10.48
9.59
9.31
9.79
10.95
12.49
14.13
15.69
17.17
18.63
20.09
21.40
22.31
22.51
21.86
20.40
18.35
15.99
13.56
11.09
8.48
5.56
2.13
-1.95
-6.76
-12.30
-18.50
-25.07
-31.44
-36.74
-39.98
-40.29
-37.29
-31.24
-23.01
-13.82
-4.87
2.98
9.37
14.26
17.88
20.40
21.97
22.59
22.34
21.34
19.87
18.25
16.74
15.49
14.41
13.31
12.00
10.34
8.40
6.30
4.20
2.12
-0.04
-2.49
-5.39
-8.78
-12.51
-16.31
-19.82
-22.81
-25.19
-27.09
-28.74
-30.46
-32.47
-34.90
-37.64
-40.45
-42.89
-44.39
-44.37
-42.37
-38.17
-31.90
-24.06
-15.30
-6.29
2.53
11.00
19.18
27.21
35.09
42.58
49.26
54.62
58.26
59.93
59.64
57.58
54.06
49.47
44.25
38.89
33.87
29.53
25.99
23.11
20.53
17.82
14.68
11.02
6.99
2.87
-1.00
-4.46
-7.51
-10.41
-13.53
-17.27
-21.86
-27.16
-32.62
-37.28
-40.04
-39.93
-36.47
-29.82
-20.76
-10.45
-0.06
9.47
17.61
24.21
29.36
33.24
35.98
37.70
38.45
38.30
37.41
35.99
34.37
32.86
31.73
31.14
31.04
31.23
31.38
31.11
29.99
27.61
23.68
18.04
10.86
2.59
-6.10
-14.52
-22.18
-28.94
-35.00
-40.83
-46.94
-53.67
-61.03
-68.50
-75.12
-79.54
-80.45
-76.95
-68.90
-57.06
-42.85
-27.92
-13.72
-1.22
9.09
17.08
22.74
26.14
27.45
27.06
25.58
23.80
22.42
21.92
22.40
23.57
24.94
25.94
26.18
25.52
24.08
22.18
20.11
18.11
16.22
14.28
12.05
9.27
5.73
1.32
-3.85
-9.50
-15.08
-19.83
-22.89
-23.57
-21.57
-17.18
-11.20
-4.74
1.12
5.68
8.69
10.27
10.72
10.26
8.99
6.91
4.06
0.59
-3.15
-6.66
-9.42
-11.06
-11.44
-10.73
-9.32
-7.66
-6.13
-4.91
-4.01
-3.37
-2.95
-2.90
-3.47
-4.93
-7.51
-11.25
-16.01
-21.43
-26.87
-31.51
-34.41
-34.76
-32.15
-26.72
-19.16
-10.50
-1.83
6.03
12.67
18.00
22.16
25.24
27.31
28.34
28.35
27.47
26.01
24.38
22.93
21.91
21.27
20.74
19.92
18.49
16.32
13.52
10.41
7.30
4.35
1.52
-1.37
-4.56
-8.15
-12.19
-16.69
-21.63
-27.01
-32.60
-37.85
-41.85
-43.53
-42.08
-37.26
-29.64
-20.34
-10.70
-1.84
5.67
11.79
16.78
20.95
24.45
27.16
28.88
29.43
28.84
27.32
25.24
23.00
20.89
19.05
17.51
16.21
15.05
13.90
12.62
11.02
8.91
6.18
2.86
-0.85
-4.67
-8.37
-11.91
-15.47
-19.38
-23.92
-29.09
-34.54
-39.51
-43.06
-44.27
-42.52
-37.72
-30.30
-21.12
-11.24
-1.62
7.06
14.50
20.70
25.80
29.95
33.14
35.28
36.33
36.37
35.68
34.59
33.41
32.26
31.06
29.70
28.13
26.41
24.64
22.91
21.09
18.89
15.97
12.11
7.37
2.05
-3.40
-8.63
-13.52
-18.20
-22.98
-28.23
-34.21
-41.02
-48.50
-56.12
-62.96
-67.82
-69.47
-67.06
-60.42
-50.27
-37.94
-25.00
-12.74
-1.88
7.38
15.15
21.53
26.43
29.66
31.08
30.81
29.27
27.08
24.90
23.15
21.97
21.18
20.42
19.38
17.88
15.96
13.82
11.72
9.84
8.24
6.86
5.54
4.09
2.30
-0.03
-3.04
-6.73
-10.87
-14.93
-18.17
-19.77
-19.11
-15.91
-10.40
-3.27
4.55
12.08
18.61
23.69
27.22
29.22
29.81
29.11
27.33
24.77
21.90
19.17
16.94
15.33
14.25
13.45
12.71
11.94
11.16
10.40
9.60
8.56
7.01
4.71
1.59
-2.21
-6.36
-10.49
-14.28
-17.61
-20.55
-23.39
-26.49
-30.20
-34.60
-39.48
-44.22
-47.89
-49.50
-48.23
-43.79
-36.56
-27.46
-17.73
-8.53
-0.55
6.06
11.59
16.50
21.09
25.35
28.94
31.45
32.55
32.24
30.73
28.42
25.70
22.90
20.25
17.97
16.24
15.21
14.87
14.99
15.17
14.88
13.72
11.51
8.40
4.79
1.17
-2.12
-4.96
-7.51
-10.07
-12.99
-16.50
-20.67
-25.36
-30.11
-34.25
-36.85
-37.06
-34.31
-28.64
-20.69
-11.59
-2.51
5.66
12.48
17.84
21.76
24.19
24.98
24.08
21.70
18.37
14.78
11.57
9.04
7.15
5.61
4.14
2.60
1.08
-0.23
-1.25
-2.08
-3.01
-4.36
-6.33
-8.89
-11.82
-14.76
-17.45
-19.73
-21.67
-23.49
-25.45
-27.80
-30.64
-33.92
-37.37
-40.43
-42.40
-42.56
-40.37
-35.70
-28.87
-20.56
-11.63
-2.88
5.11
12.00
17.69
22.15
25.40
27.51
28.58
28.78
28.33
27.47
26.41
25.33
24.32
23.39
22.49
21.53
20.39
19.01
17.30
15.21
12.68
9.63
6.02
1.89
-2.62
-7.26
-11.75
-15.90
-19.70
-23.31
-27.05
-31.19
-35.69
-40.13
-43.65
-45.21
-43.95
-39.50
-32.18
-22.96
-13.13
-3.94
3.76
9.65
13.89
16.83
18.82
20.06
20.58
20.41
19.65
18.52
17.30
16.17
15.11
13.98
12.54
10.61
8.16
5.27
2.07
-1.30
-4.70
-7.91
-10.65
-12.61
-13.63
-13.77
-13.42
-13.15
-13.58
-15.19
-18.25
-22.74
-28.48
-35.03
-41.75
-47.78
-52.18
-54.08
-52.97
-48.82
-42.08
-33.61
-24.43
-15.48
-7.52
-0.92
4.33
8.52
12.05
15.26
18.29
21.04
23.33
25.06
26.34
27.47
28.77
30.46
32.54
34.81
37.01
38.89
40.25
40.92
40.83
39.94
38.37
36.35
34.12
31.87
29.65
27.42
25.11
22.67
20.16
17.68
15.42
13.69
12.89
13.44
15.65
19.53
24.71
30.49
36.10
40.88
44.47
46.83
48.09
48.46
48.11
47.10
45.44
43.12
40.17
36.81
33.31
29.93
26.73
23.46
19.55
14.39
7.67
-0.47
-9.34
-18.05
-25.88
-32.55
-38.25
-43.46
-48.64
-53.99
-59.39
-64.42
-68.49
-70.96
-71.21
-68.78
-63.49
-55.55
-45.60
-34.59
-23.58
-13.45
-4.81
2.06
7.10
10.38
12.06
12.42
11.89
11.04
10.45
10.55
11.50
13.16
15.13
16.87
17.93
18.00
17.08
15.36
13.21
11.04
9.08
7.34
5.54
3.24
-0.02
-4.48
-10.03
-16.10
-21.79
-26.01
-27.81
-26.59
-22.30
-15.49
-7.11
1.67
9.77
16.44
21.35
24.52
26.21
26.71
26.25
24.95
22.87
20.13
17.01
13.91
11.25
9.28
7.95
7.00
6.02
4.74
3.04
1.01
-1.23
-3.62
-6.26
-9.33
-12.98
-17.25
-22.11
-27.50
-33.38
-39.60
-45.82
-51.38
-55.41
-57.04
-55.78
-51.69
-45.41
-37.94
-30.26
-23.04
-16.43
-10.21
-3.99
2.44
8.94
14.97
19.86
23.01
24.19
23.61
21.84
19.54
17.22
15.05
12.87
10.37
7.26
3.47
-0.86
-5.45
-10.00
-14.34
-18.42
-22.28
-26.00
-29.66
-33.34
-37.25
-41.61
-46.60
-52.04
-57.16
-60.60
-60.81
-56.65
-47.98
-35.85
-22.15
-8.87
2.62
11.94
19.53
26.14
32.30
38.22
43.77
48.78
53.15
56.75
59.38
60.72
60.49
58.64
55.49
51.64
47.70
44.07
40.86
37.88
34.87
31.61
27.95
23.88
19.50
14.92
10.27
5.60
0.86
-4.09
-9.38
-14.98
-20.55
-25.44
-28.76
-29.73
-28.00
-23.78
-17.91
-11.53
-5.73
-1.22
1.78
3.43
4.05
3.86
2.94
1.27
-1.13
-4.19
-7.71
-11.48
-15.30
-18.94
-22.20
-24.84
-26.74
-27.90
-28.52
-28.88
-29.19
-29.56
-29.90
-30.13
-30.23
-30.31
-30.61
-31.36
-32.76
-34.84
-37.46
-40.30
-42.84
-44.47
-44.59
-42.85
-39.22
-34.04
-27.92
-21.50
-15.32
-9.69
-4.76
-0.60
2.73
5.20
6.92
8.24
9.71
12.02
15.65
20.67
26.68
32.81
38.14
41.90
43.78
43.89
42.76
41.08
39.49
38.48
38.22
38.51
38.84
38.44
36.42
32.11
25.25
16.22
6.11
-3.41
-10.49
-13.54
-11.74
-5.37
4.30
15.24
25.30
32.74
36.63
37.03
34.82
31.41
28.40
27.17
28.63
33.03
39.91
48.20
56.51
63.35
67.49
68.17
65.23
59.10
50.68
41.07
31.32
22.20
14.13
7.21
1.34
-3.58
-7.65
-10.95
-13.65
-16.06
-18.59
-21.56
-25.01
-28.59
-31.60
-33.19
-32.66
-29.75
-24.68
-18.15
-10.99
-3.99
2.37
7.86
12.47
16.22
19.07
20.98
22.00
22.33
22.28
22.20
22.28
22.53
22.76
22.68
22.09
20.85
18.98
16.58
13.75
10.64
7.36
4.01
0.62
-2.83
-6.47
-10.48
-14.94
-19.82
-24.84
-29.44
-32.93
-34.59
-33.90
-30.75
-25.51
-18.93
-11.98
-5.53
-0.11
4.11
7.24
9.46
10.89
11.54
11.40
10.52
9.09
7.31
5.38
3.38
1.33
-0.78
-2.93
-5.03
-7.05
-8.94
-10.75
-12.55
-14.38
-16.32
-18.45
-20.94
-23.93
-27.58
-31.94
-36.90
-42.12
-47.03
-50.87
-52.83
-52.29
-49.04
-43.34
-35.83
-27.31
-18.44
-9.72
-1.49
5.94
12.15
16.78
19.63
20.92
21.23
21.30
21.76
22.85
24.49
26.31
27.95
29.12
29.70
29.67
29.08
27.98
26.41
24.45
22.09
19.27
15.79
11.38
5.80
-0.96
-8.55
-16.17
-22.74
-27.14
-28.58
-26.78
-22.18
-15.66
-8.36
-1.27
4.97
10.15
14.38
17.81
20.46
22.15
22.58
21.56
19.20
15.94
12.43
9.23
6.56
4.25
1.90
-0.88
-4.23
-7.98
-11.82
-15.55
-19.21
-23.07
-27.49
-32.71
-38.83
-45.75
-53.29
-61.16
-68.87
-75.77
-80.96
-83.59
-83.06
-79.30
-72.82
-64.57
-55.55
-46.56
-38.02
-30.10
-22.88
-16.59
-11.62
-8.33
-6.84
-6.91
-7.94
-9.26
-10.35
-11.03
-11.47
-11.98
-12.84
-14.16
-15.84
-17.71
-19.63
-21.53
-23.45
-25.52
-27.92
-30.90
-34.68
-39.35
-44.74
-50.23
-54.81
-57.27
-56.51
-51.99
-43.89
-33.09
-20.92
-8.65
2.76
12.88
21.66
29.23
35.66
40.89
44.75
47.21
48.46
48.90
49.07
49.35
49.83
50.32
50.43
49.83
48.42
46.36
44.01
41.69
39.63
37.80
36.03
34.06
31.64
28.60
24.85
20.42
15.50
10.49
6.00
2.78
1.54
2.69
6.22
11.58
17.93
24.37
30.24
35.28
39.46
42.89
45.49
47.04
47.18
45.72
42.75
38.68
34.11
29.66
25.75
22.48
19.69
17.08
14.35
11.31
7.98
4.47
0.98
-2.39
-5.68
-9.05
-12.74
-16.92
-21.63
-26.73
-31.99
-37.13
-41.81
-45.58
-47.87
-48.02
-45.42
-39.80
-31.33
-20.68
-8.84
3.17
14.53
24.71
33.42
40.45
45.59
48.62
49.48
48.38
45.86
42.64
39.45
36.71
34.47
32.46
30.28
27.62
24.40
20.71
16.67
12.31
7.54
2.24
-3.65
-9.98
-16.47
-22.81
-28.81
-34.51
-40.17
-46.15
-52.70
-59.82
-67.09
-73.68
-78.50
-80.42
-78.67
-73.08
-64.20
-53.18
-41.43
-30.19
-20.28
-11.97
-5.19
0.25
4.43
7.33
8.87
9.12
8.27
6.56
4.17
1.14
-2.49
-6.53
-10.52
-13.77
-15.51
-15.24
-12.87
-8.71
-3.39
2.31
7.70
12.22
15.52
17.49
18.29
18.21
17.59
16.62
15.27
13.29
10.40
6.57
2.14
-2.04
-4.91
-5.45
-3.14
1.88
8.84
16.66
24.29
31.02
36.52
40.74
43.66
45.23
45.34
43.97
41.36
37.99
34.45
31.27
28.78
27.09
26.14
25.78
25.87
26.27
26.83
27.41
27.88
28.18
28.25
28.00
27.32
26.08
24.20
21.77
19.07
16.48
14.34
12.75
11.55
10.31
8.52
5.75
1.80
-3.22
-8.85
-14.33
-18.76
-21.28
-21.32
-18.75
-13.97
-7.82
-1.28
4.79
9.85
13.74
16.57
18.56
19.83
20.40
20.23
19.40
18.12
16.78
15.77
15.31
15.33
15.49
15.38
14.71
13.45
11.86
10.29
9.04
8.14
7.33
6.19
4.32
1.55
-2.00
-5.97
-9.90
-13.37
-16.21
-18.46
-20.32
-22.10
-24.06
-26.42
-29.29
-32.59
-35.96
-38.86
-40.56
-40.44
-38.14
-33.79
-27.88
-21.12
-14.18
-7.53
-1.47
3.79
8.07
11.15
12.91
13.42
12.95
11.94
10.84
9.96
9.42
9.19
9.15
9.12
9.04
8.85
8.52
8.06
7.41
6.43
4.98
2.91
0.19
-3.05
-6.52
-9.89
-12.89
-15.48
-17.78
-20.05
-22.55
-25.51
-28.98
-32.89
-36.94
-40.62
-43.23
-43.99
-42.29
-37.89
-31.08
-22.64
-13.61
-4.99
2.51
8.57
13.22
16.70
19.23
20.94
21.85
21.99
21.43
20.36
19.06
17.79
16.66
15.66
14.66
13.51
12.12
10.45
8.55
6.43
4.02
1.21
-2.05
-5.75
-9.73
-13.79
-17.75
-21.59
-25.52
-29.81
-34.73
-40.23
-45.92
-51.07
-54.79
-56.33
-55.32
-51.87
-46.53
-40.12
-33.45
-27.15
-21.56
-16.74
-12.69
-9.47
-7.25
-6.30
-6.78
-8.61
-11.33
-14.11
-15.91
-15.82
-13.30
-8.49
-2.17
4.43
9.95
13.35
14.20
12.76
9.80
6.38
3.45
1.68
1.23
1.83
2.78
3.19
2.21
-0.62
-5.10
-10.37
-15.07
-17.81
-17.57
-14.08
-7.79
0.27
8.92
17.11
24.18
29.91
34.39
37.93
40.84
43.30
45.30
46.70
47.31
47.00
45.74
43.67
40.99
37.94
34.76
31.67
28.86
26.46
24.52
22.99
21.73
20.55
19.32
17.91
16.26
14.31
12.02
9.37
6.33
2.87
-1.04
-5.41
-10.07
-14.64
-18.50
-20.84
-20.95
-18.47
-13.64
-7.24
-0.36
5.93
10.90
14.32
16.39
17.48
17.88
17.69
16.86
15.35
13.32
11.16
9.30
8.02
7.26
6.66
5.69
4.01
1.56
-1.37
-4.33
-6.94
-9.08
-10.86
-12.60
-14.64
-17.21
-20.47
-24.42
-29.00
-33.98
-38.95
-43.30
-46.23
-46.96
-44.96
-40.21
-33.18
-24.78
-16.00
-7.63
-0.13
6.37
11.83
16.20
19.28
20.94
21.24
20.57
19.51
18.67
18.39
18.63
19.07
19.25
18.86
17.82
16.24
14.31
12.20
9.95
7.51
4.81
1.75
-1.76
-5.84
-10.59
-15.99
-21.80
-27.42
-32.00
-34.62
-34.62
-31.82
-26.64
-19.87
-12.41
-4.98
2.04
8.52
14.42
19.54
23.59
26.24
27.28
26.80
25.10
22.61
19.76
16.79
13.74
10.42
6.65
2.33
-2.39
-7.16
-11.48
-14.91
-17.14
-18.09
-17.91
-16.95
-15.70
-14.73
-14.57
-15.61
-17.97
-21.33
-24.98
-27.93
-29.11
-27.74
-23.42
-16.35
-7.22
2.95
13.09
22.33
30.23
36.79
42.36
47.37
52.13
56.69
60.83
64.18
66.39
67.27
66.88
65.45
63.24
60.32
56.52
51.44
44.67
35.98
25.50
13.74
1.40
-10.82
-22.43
-33.19
-43.07
-52.09
-60.30
-67.80
-74.81
-81.66
-88.60
-95.55
-101.91
-106.55
-108.17
-105.82
-99.28
-89.25
-77.08
-64.30
-52.10
-41.06
-31.22
-22.37
-14.34
-7.19
-1.13
3.66
7.15
9.48
10.98
11.93
12.62
13.21
13.76
14.29
14.78
15.19
15.50
15.66
15.63
15.34
14.64
13.39
11.50
9.02
6.14
3.13
0.27
-2.32
-4.66
-6.94
-9.39
-12.12
-14.99
-17.57
-19.19
-19.24
-17.31
-13.41
-7.98
-1.69
4.81
11.07
16.95
22.53
27.96
33.26
38.25
42.59
45.89
47.85
48.37
47.58
45.80
43.46
40.96
38.61
36.58
34.87
33.39
31.98
30.48
28.80
26.90
24.82
22.58
20.17
17.50
14.50
11.19
7.80
4.63
1.97
-0.05
-1.62
-3.14
-5.07
-7.79
-11.51
-16.24
-21.86
-28.04
-34.18
-39.42
-42.74
-43.27
-40.58
-34.94
-27.20
-18.51
-9.86
-1.86
5.38
12.01
18.20
23.90
28.84
32.64
35.06
36.08
35.98
35.14
33.95
32.63
31.23
29.69
27.92
25.94
23.87
21.89
20.13
18.62
17.17
15.48
13.26
10.37
6.90
3.16
-0.43
-3.56
-6.13
-8.33
-10.53
-13.10
-16.33
-20.36
-25.21
-30.72
-36.55
-42.10
-46.60
-49.22
-49.31
-46.67
-41.58
-34.72
-26.92
-18.89
-11.03
-3.50
3.70
10.46
16.53
21.49
24.97
26.80
27.07
26.22
24.76
23.15
21.64
20.26
18.91
17.50
16.03
14.63
13.41
12.41
11.50
10.47
9.04
7.03
4.40
1.28
-2.07
-5.37
-8.38
-11.02
-13.38
-15.66
-18.14
-21.06
-24.56
-28.59
-32.85
-36.72
-39.41
-40.13
-38.36
-34.06
-27.67
-19.95
-11.69
-3.47
4.44
11.93
18.92
25.15
30.20
33.62
35.15
34.82
33.03
30.40
27.60
25.10
23.10
21.51
20.12
18.75
17.33
15.90
14.51
13.11
11.58
9.76
7.54
4.91
1.91
-1.41
-5.02
-8.84
-12.72
-16.45
-19.82
-22.77
-25.42
-28.10
-31.18
-34.98
-39.61
-44.86
-50.21
-54.88
-57.98
-58.77
-56.86
-52.28
-45.53
-37.37
-28.58
-19.83
-11.58
-4.13
2.40
7.99
12.72
16.78
20.33
23.45
26.08
28.03
29.16
29.45
29.11
28.50
27.96
27.74
27.81
27.95
27.86
27.31
26.20
24.65
22.81
20.83
18.71
16.39
13.76
10.79
7.54
4.10
0.61
-2.85
-6.22
-9.44
-12.44
-15.19
-17.82
-20.64
-24.05
-28.30
-33.30
-38.46
-42.81
-45.33
-45.25
-42.37
-37.08
-30.18
-22.53
-14.90
-7.74
-1.22
4.62
9.81
14.31
18.06
20.99
23.11
24.48
25.21
25.43
25.27
24.78
24.01
23.02
21.89
20.71
19.52
18.33
17.09
15.76
14.31
12.72
10.94
8.92
6.54
3.77
0.60
-2.88
-6.50
-10.08
-13.49
-16.67
-19.69
-22.70
-25.89
-29.49
-33.67
-38.47
-43.67
-48.71
-52.79
-55.01
-54.61
-51.26
-45.21
-37.26
-28.49
-19.92
-12.22
-5.57
0.24
5.55
10.58
15.30
19.51
22.95
25.48
27.13
28.05
28.40
28.36
28.03
27.53
26.95
26.37
25.84
25.35
24.84
24.25
23.46
22.34
20.70
18.36
15.26
11.51
7.39
3.23
-0.66
-4.17
-7.36
-10.42
-13.56
-16.95
-20.71
-24.93
-29.61
-34.60
-39.49
-43.52
-45.79
-45.52
-42.34
-36.56
-29.01
-20.78
-12.82
-5.63
0.76
6.56
12.00
17.08
21.57
25.15
27.59
28.87
29.20
28.94
28.45
27.97
27.63
27.37
27.11
26.72
26.11
25.25
24.16
22.83
21.28
19.48
17.43
15.12
12.58
9.85
6.94
3.84
0.56
-2.90
-6.45
-10.01
-13.47
-16.80
-20.00
-23.20
-26.58
-30.41
-34.84
-39.83
-45.01
-49.61
-52.67
-53.24
-50.76
-45.28
-37.43
-28.24
-18.79
-9.91
-2.01
4.82
10.73
15.86
20.29
23.96
26.76
28.59
29.48
29.54
28.98
28.03
26.88
25.66
24.43
23.19
21.92
20.60
19.18
17.60
15.80
13.77
11.54
9.20
6.83
4.51
2.21
-0.18
-2.83
-5.89
-9.32
-12.96
-16.45
-19.48
-21.87
-23.71
-25.36
-27.29
-29.99
-33.76
-38.61
-44.15
-49.62
-53.95
-55.97
-54.79
-50.03
-42.08
-31.91
-20.88
-10.22
-0.78
7.13
13.61
18.91
23.28
26.83
29.60
31.62
33.01
33.94
34.60
35.10
35.46
35.69
35.71
35.50
34.99
34.13
32.89
31.25
29.26
26.97
24.42
21.62
18.57
15.25
11.68
7.95
4.18
0.49
-3.08
-6.59
-10.15
-13.92
-18.07
-22.74
-28.05
-34.06
-40.65
-47.45
-53.79
-58.71
-61.22
-60.58
-56.53
-49.46
-40.30
-30.29
-20.56
-11.91
-4.64
1.33
6.32
10.66
14.51
17.88
20.67
22.76
24.12
24.84
25.14
25.25
25.36
25.56
25.81
26.01
26.05
25.81
25.24
24.32
23.04
21.34
19.13
16.31
12.80
8.66
4.06
-0.72
-5.38
-9.67
-13.47
-16.78
-19.74
-22.61
-25.76
-29.59
-34.37
-40.10
-46.33
-52.17
-56.43
-58.00
-56.14
-50.78
-42.52
-32.42
-21.67
-11.34
-2.10
5.73
12.15
17.29
21.33
24.35
26.39
27.47
27.64
27.09
26.04
24.75
23.39
21.97
20.37
18.44
16.10
13.45
10.71
8.13
5.87
3.92
2.04
-0.06
-2.62
-5.71
-9.16
-12.62
-15.70
-18.13
-19.86
-21.05
-22.03
-23.17
-24.82
-27.24
-30.46
-34.28
-38.09
-40.99
-41.92
-40.01
-34.86
-26.76
-16.61
-5.62
5.08
14.71
22.98
29.95
35.78
40.63
44.51
47.41
49.40
50.67
51.54
52.30
53.11
53.99
54.78
55.33
55.52
55.36
54.84
53.97
52.69
50.92
48.57
45.58
41.90
37.53
32.49
26.94
21.16
15.50
10.28
5.68
1.62
-2.19
-6.12
-10.49
-15.40
-20.71
-25.99
-30.59
-33.78
-34.87
-33.47
-29.57
-23.61
-16.34
-8.63
-1.26
5.24
10.60
14.76
17.80
19.81
20.96
21.45
21.50
21.38
21.27
21.22
21.16
20.91
20.31
19.29
17.95
16.46
15.09
14.00
13.21
12.54
11.70
10.35
8.25
5.36
1.81
-2.06
-5.90
-9.40
-12.46
-15.19
-17.90
-20.99
-24.80
-29.39
-34.43
-39.23
-42.79
-44.20
-42.84
-38.73
-32.40
-24.83
-17.06
-9.95
-4.00
0.67
4.14
6.56
8.05
8.65
8.45
7.60
6.36
5.05
3.91
3.10
2.59
2.24
1.90
1.43
0.75
-0.15
-1.29
-2.67
-4.27
-6.04
-7.89
-9.70
-11.36
-12.79
-14.01
-15.09
-16.22
-17.64
-19.56
-22.01
-24.77
-27.25
-28.60
-27.99
-24.88
-19.30
-11.84
-3.55
4.48
11.46
17.07
21.47
25.07
28.21
31.00
33.31
34.88
35.56
35.41
34.69
33.75
32.91
32.30
31.89
31.50
30.90
29.88
28.31
26.11
23.32
20.05
16.51
12.93
9.51
6.32
3.28
0.16
-3.36
-7.56
-12.50
-17.92
-23.24
-27.61
-30.17
-30.34
-27.99
-23.50
-17.68
-11.44
-5.53
-0.37
3.96
7.58
10.61
13.09
14.94
16.07
16.50
16.34
15.76
14.96
14.05
13.11
12.12
11.07
9.90
8.56
6.96
5.04
2.78
0.22
-2.54
-5.35
-8.12
-10.82
-13.51
-16.33
-19.42
-22.96
-27.07
-31.70
-36.53
-40.91
-43.99
-44.94
-43.28
-39.09
-33.00
-25.93
-18.81
-12.29
-6.72
-2.23
1.10
3.16
3.85
3.26
1.67
-0.49
-2.75
-4.86
-6.81
-8.80
-11.18
-14.20
-17.97
-22.34
-27.04
-31.71
-36.11
-40.21
-44.21
-48.51
-53.53
-59.50
-66.30
-73.38
-79.81
-84.44
-86.23
-84.51
-79.19
-70.78
-60.21
-48.51
-36.53
-24.75
-13.35
-2.28
8.52
19.07
29.28
38.99
47.93
55.75
62.11
66.73
69.60
71.08
71.78
72.43
73.52
75.14
76.92
78.17
78.11
76.13
71.89
65.40
56.98
47.24
37.00
27.16
18.51
11.52
6.13
1.78
-2.49
-7.63
-14.22
-22.04
-30.06
-36.64
-40.04
-39.11
-33.68
-24.72
-14.00
-3.50
5.22
11.39
15.07
16.95
17.92
18.77
20.00
21.85
24.28
27.10
29.97
32.44
34.04
34.36
33.18
30.45
26.37
21.28
15.60
9.76
4.15
-0.97
-5.55
-9.75
-13.86
-18.16
-22.84
-27.79
-32.71
-37.12
-40.52
-42.44
-42.55
-40.67
-36.82
-31.29
-24.59
-17.47
-10.71
-4.90
-0.33
3.14
5.88
8.39
10.99
13.76
16.51
18.96
20.89
22.22
23.07
23.63
24.10
24.59
25.15
25.90
26.99
28.59
30.76
33.38
36.03
38.21
39.40
39.27
37.64
34.56
30.09
24.40
17.70
10.37
2.95
-3.87
-9.34
-12.88
-14.09
-12.95
-9.75
-5.08
0.30
5.65
10.40
14.23
17.09
19.05
20.20
20.55
20.06
18.77
16.86
14.63
12.44
10.54
8.98
7.63
6.21
4.52
2.46
0.11
-2.30
-4.53
-6.42
-7.97
-9.35
-10.77
-12.42
-14.39
-16.68
-19.20
-21.84
-24.44
-26.72
-28.24
-28.50
-27.10
-23.90
-19.17
-13.48
-7.55
-1.98
2.85
6.80
9.86
11.96
13.00
12.90
11.79
10.01
8.07
6.46
5.44
4.95
4.73
4.38
3.64
2.41
0.78
-1.08
-3.01
-4.93
-6.88
-8.97
-11.39
-14.31
-17.81
-21.88
-26.33
-30.84
-34.96
-38.19
-40.09
-40.30
-38.67
-35.30
-30.49
-24.74
-18.56
-12.39
-6.51
-1.15
3.50
7.16
9.60
10.67
10.48
9.39
7.95
6.62
5.66
5.00
4.38
3.44
2.04
0.23
-1.76
-3.65
-5.32
-6.83
-8.46
-10.52
-13.35
-17.14
-21.98
-27.76
-34.14
-40.49
-45.91
-49.43
-50.24
-48.02
-43.02
-36.06
-28.12
-20.14
-12.69
-6.02
-0.19
4.70
8.51
11.00
12.06
11.80
10.57
8.87
7.20
5.84
4.87
4.11
3.27
2.09
0.45
-1.61
-3.96
-6.50
-9.24
-12.41
-16.30
-21.19
-27.24
-34.32
-42.06
-49.79
-56.65
-61.71
-64.11
-63.30
-59.18
-52.17
-43.05
-32.75
-22.07
-11.60
-1.65
7.57
15.83
22.79
28.10
31.52
33.09
33.12
32.08
30.48
28.68
26.80
24.79
22.51
19.87
16.84
13.54
10.14
6.77
3.45
0.08
-3.54
-7.67
-12.59
-18.48
-25.36
-32.95
-40.66
-47.52
-52.40
-54.26
-52.50
-47.13
-38.82
-28.66
-17.78
-7.07
2.96
12.15
20.38
27.53
33.32
37.44
39.70
40.13
39.02
36.85
34.18
31.45
28.95
26.73
24.67
22.54
20.11
17.28
14.01
10.42
6.65
2.85
-0.96
-4.88
-9.10
-13.87
-19.40
-25.79
-32.89
-40.26
-47.08
-52.28
-54.78
-53.78
-49.02
-40.90
-30.36
-18.59
-6.73
4.41
14.40
23.14
30.66
37.01
42.11
45.84
48.04
48.63
47.69
45.49
42.44
38.99
35.55
32.34
29.37
26.51
23.55
20.31
16.69
12.67
8.30
3.69
-0.98
-5.47
-9.53
-12.98
-15.82
-18.29
-20.83
-23.93
-27.78
-32.06
-35.93
-38.13
-37.52
-33.43
-26.04
-16.22
-5.31
5.48
15.31
23.90
31.35
37.82
43.36
47.82
51.02
52.83
53.33
52.79
51.53
49.82
47.79
45.49
42.93
40.21
37.56
35.21
33.33
31.86
30.51
28.79
26.26
22.68
18.14
13.01
7.78
2.92
-1.36
-5.06
-8.44
-11.88
-15.78
-20.45
-25.87
-31.62
-36.84
-40.33
-40.98
-38.09
-31.71
-22.60
-12.01
-1.21
8.90
17.91
25.79
32.61
38.34
42.77
45.61
46.73
46.27
44.63
42.31
39.76
37.19
34.65
32.13
29.66
27.41
25.56
24.15
23.04
21.84
20.11
17.49
13.86
9.32
4.15
-1.34
-6.86
-12.21
-17.27
-22.00
-26.43
-30.72
-35.09
-39.77
-44.87
-50.15
-55.02
-58.60
-59.90
-58.26
-53.54
-46.23
-37.26
-27.65
-18.20
-9.30
-1.09
6.47
13.27
19.10
23.71
26.97
28.97
29.98
30.35
30.33
30.07
29.57
28.78
27.70
26.38
24.91
23.38
21.80
20.10
18.12
15.70
12.70
9.07
4.91
0.45
-3.93
-7.87
-11.08
-13.46
-15.20
-16.70
-18.51
-21.07
-24.57
-28.75
-32.93
-36.13
-37.36
-35.96
-31.86
-25.53
-17.86
-9.80
-2.08
4.88
10.98
16.22
20.56
23.92
26.23
27.54
28.07
28.18
28.22
28.44
28.89
29.43
29.82
29.87
29.47
28.70
27.76
26.84
26.05
25.31
24.40
23.09
21.19
18.69
15.70
12.39
8.96
5.52
2.12
-1.27
-4.69
-8.23
-11.98
-15.97
-20.17
-24.39
-28.25
-31.17
-32.53
-31.82
-28.88
-24.01
-17.87
-11.30
-5.02
0.49
5.07
8.74
11.54
13.51
14.68
15.17
15.19
14.98
14.75
14.56
14.36
14.07
13.65
13.16
12.76
12.55
12.58
12.74
12.76
12.36
11.27
9.40
6.83
3.84
0.83
-1.85
-3.98
-5.57
-6.82
-8.08
-9.67
-11.77
-14.31
-16.90
-18.94
-19.76
-18.87
-16.10
-11.73
-6.32
-0.60
4.79
9.44
13.18
16.01
17.97
19.09
19.31
18.63
17.11
14.99
12.67
10.60
9.19
8.67
9.02
10.07
11.59
13.37
15.24
17.06
18.59
19.57
19.78
19.11
17.69
15.80
13.75
11.77
9.83
7.73
5.17
1.88
-2.22
-6.95
-11.84
-16.21
-19.37
-20.84
-20.52
-18.76
-16.27
-13.88
-12.30
-11.90
-12.67
-14.39
-16.72
-19.36
-22.12
-24.85
-27.47
-29.87
-31.91
-33.43
-34.33
-34.60
-34.37
-33.92
-33.63
-33.75
-34.39
-35.37
-36.36
-36.97
-36.95
-36.27
-35.09
-33.60
-31.98
-30.37
-28.94
-27.93
-27.67
-28.45
-30.42
-33.49
-37.24
-41.04
-44.14
-45.78
-45.39
-42.72
-37.91
-31.47
-24.12
-16.59
-9.42
-2.92
2.82
7.81
12.10
15.70
18.62
20.88
22.55
23.74
24.62
25.32
25.98
26.62
27.21
27.66
27.86
27.68
27.06
25.90
24.10
21.57
18.31
14.47
10.33
6.28
2.60
-0.62
-3.59
-6.64
-10.17
-14.38
-19.26
-24.50
-29.55
-33.73
-36.31
-36.67
-34.44
-29.60
-22.56
-14.03
-4.95
3.82
11.68
18.33
23.77
28.13
31.51
33.94
35.39
35.86
35.51
34.65
33.67
32.88
32.36
31.96
31.39
30.34
28.69
26.46
23.85
21.11
18.40
15.81
13.31
10.83
8.28
5.60
2.78
-0.14
-3.10
-6.01
-8.83
-11.57
-14.30
-17.13
-20.20
-23.60
-27.33
-31.23
-34.95
-37.97
-39.59
-39.20
-36.37
-31.08
-23.76
-15.27
-6.59
1.36
8.01
13.19
17.04
19.90
22.08
23.75
25.04
26.02
26.85
27.74
28.86
30.28
31.89
33.42
34.54
34.99
34.67
33.65
32.09
30.18
28.10
25.97
23.90
22.01
20.38
19.08
17.97
16.80
15.12
12.50
8.66
3.62
-2.30
-8.59
-14.79
-20.66
-26.29
-31.95
-37.86
-43.88
-49.40
-53.39
-54.78
-52.86
-47.58
-39.62
-30.13
-20.34
-11.18
-3.12
3.78
9.61
14.45
18.27
21.00
22.70
23.55
23.82
23.78
23.56
23.22
22.73
22.10
21.38
20.60
19.77
18.81
17.68
16.33
14.76
12.94
10.82
8.29
5.19
1.40
-3.09
-8.21
-13.74
-19.35
-24.69
-29.41
-33.32
-36.44
-39.03
-41.46
-44.10
-47.20
-50.72
-54.36
-57.55
-59.58
-59.72
-57.38
-52.32
-44.73
-35.26
-24.84
-14.41
-4.73
3.82
11.21
17.57
23.07
27.74
31.48
34.14
35.63
36.04
35.59
34.62
33.36
31.93
30.24
28.16
25.65
22.82
19.92
17.23
14.92
12.94
11.04
8.86
6.10
2.62
-1.44
-5.77
-9.96
-13.68
-16.79
-19.35
-21.58
-23.76
-26.20
-29.15
-32.84
-37.37
-42.62
-48.11
-52.97
-56.07
-56.41
-53.44
-47.37
-39.06
-29.73
-20.55
-12.30
-5.32
0.39
4.88
8.18
10.25
11.10
10.95
10.23
9.44
8.99
8.99
9.23
9.34
9.01
8.14
6.94
5.72
4.73
3.93
3.00
1.53
-0.75
-3.83
-7.41
-11.06
-14.41
-17.23
-19.45
-21.20
-22.76
-24.53
-27.05
-30.77
-35.82
-41.80
-47.72
-52.28
-54.25
-52.94
-48.44
-41.53
-33.36
-25.02
-17.18
-9.98
-3.20
3.44
10.00
16.20
21.53
25.60
28.37
30.27
32.05
34.40
37.63
41.50
45.41
48.68
50.92
52.13
52.64
52.77
52.65
52.08
50.67
48.04
44.03
38.84
32.90
26.73
20.74
15.10
9.71
4.33
-1.31
-7.37
-13.91
-20.84
-27.97
-34.87
-40.93
-45.30
-47.17
-45.93
-41.48
-34.29
-25.34
-15.77
-6.60
1.52
8.35
13.90
18.26
21.42
23.33
23.92
23.32
21.82
19.86
17.89
16.16
14.73
13.46
12.18
10.86
9.63
8.75
8.44
8.70
9.20
9.37
8.56
6.21
2.14
-3.45
-9.98
-16.70
-22.95
-28.29
-32.66
-36.33
-39.80
-43.65
-48.29
-53.77
-59.61
-64.81
-68.06
-68.14
-64.36
-56.81
-46.37
-34.35
-22.09
-10.54
-0.14
9.10
17.32
24.59
30.83
35.90
39.69
42.34
44.15
45.53
46.82
48.17
49.52
50.64
51.31
51.47
51.28
50.97
50.76
50.67
50.47
49.81
48.30
45.77
42.26
38.07
33.60
29.24
25.26
21.66
18.20
14.43
9.82
3.90
-3.48
-12.08
-21.25
-29.98
-37.22
-42.06
-43.99
-42.98
-39.47
-34.12
-27.68
-20.72
-13.65
-6.61
0.27
6.86
12.90
18.07
22.14
25.03
26.92
28.16
29.15
30.13
31.22
32.34
33.34
34.11
34.63
34.95
35.15
35.26
35.17
34.73
33.71
31.94
29.35
26.00
22.11
17.90
13.62
9.39
5.22
0.97
-3.56
-8.63
-14.41
-20.83
-27.57
-33.92
-38.95
-41.74
-41.69
-38.74
-33.43
-26.67
-19.43
-12.46
-6.13
-0.51
4.49
8.92
12.72
15.76
17.92
19.22
19.79
19.87
19.71
19.51
19.37
19.33
19.34
19.34
19.25
18.97
18.43
17.57
16.40
14.91
13.12
10.98
8.48
5.61
2.48
-0.70
-3.71
-6.36
-8.59
-10.54
-12.45
-14.60
-17.28
-20.64
-24.63
-28.94
-32.95
-35.83
-36.79
-35.34
-31.47
-25.69
-18.82
-11.74
-5.11
0.72
5.68
9.88
13.46
16.50
18.99
20.87
22.06
22.57
22.50
22.09
21.63
21.36
21.34
21.45
21.44
21.08
20.26
19.09
17.76
16.43
15.13
13.73
12.03
9.86
7.19
4.17
1.05
-1.91
-4.59
-6.97
-9.18
-11.37
-13.70
-16.28
-19.20
-22.48
-26.05
-29.64
-32.75
-34.72
-34.88
-32.82
-28.51
-22.38
-15.15
-7.57
-0.27
6.41
12.33
17.45
21.74
25.22
27.92
30.02
31.82
33.71
36.05
39.04
42.57
46.15
49.07
50.56
50.08
47.57
43.46
38.45
33.26
28.36
23.92
19.90
16.21
12.89
9.96
7.40
5.00
2.40
-0.76
-4.69
-9.43
-14.87
-20.93
-27.61
-34.98
-42.96
-51.15
-58.78
-64.85
-68.44
-69.02
-66.69
-62.05
-56.07
-49.70
-43.64
-38.27
-33.65
-29.67
-26.25
-23.33
-20.92
-19.00
-17.50
-16.26
-15.09
-13.83
-12.43
-10.99
-9.69
-8.71
-8.07
-7.65
-7.25
-6.75
-6.26
-6.12
-6.74
-8.38
-10.96
-14.06
-17.12
-19.64
-21.45
-22.72
-23.87
-25.43
-27.76
-31.03
-35.09
-39.54
-43.78
-47.07
-48.68
-48.11
-45.18
-40.13
-33.56
-26.24
-18.94
-12.25
-6.52
-1.87
1.72
4.33
6.07
7.10
7.57
7.68
7.53
7.12
6.39
5.26
3.76
2.04
0.36
-1.11
-2.30
-3.41
-4.68
-6.36
-8.54
-11.11
-13.81
-16.38
-18.57
-20.25
-21.37
-22.02
-22.45
-23.02
-24.10
-25.84
-28.02
-29.94
-30.70
-29.48
-25.89
-20.14
-12.99
-5.34
1.99
8.57
14.22
18.90
22.47
24.75
25.54
24.86
23.07
20.76
18.58
17.02
16.29
16.28
16.74
17.35
17.90
18.30
18.51
18.55
18.37
17.90
17.02
15.62
13.67
11.25
8.57
5.83
3.23
0.75
-1.76
-4.67
-8.34
-13.02
-18.71
-25.10
-31.55
-37.24
-41.31
-43.02
-41.98
-38.23
-32.22
-24.72
-16.61
-8.64
-1.25
5.42
11.44
16.96
22.04
26.64
30.64
33.93
36.43
38.12
39.00
39.05
38.28
36.75
34.66
32.27
29.92
27.84
26.11
24.64
23.18
21.47
19.29
16.58
13.38
9.81
5.99
1.97
-2.32
-6.99
-12.22
-18.08
-24.40
-30.68
-36.10
-39.63
-40.42
-38.05
-32.80
-25.54
-17.43
-9.50
-2.32
4.06
9.89
15.44
20.75
25.55
29.41
32.01
33.28
33.43
32.84
31.90
30.86
29.83
28.83
27.85
26.92
26.12
25.51
25.06
24.55
23.67
22.03
19.41
15.84
11.68
7.45
3.66
0.55
-1.98
-4.29
-6.83
-10.00
-14.02
-18.94
-24.56
-30.46
-35.89
-39.88
-41.50
-40.13
-35.83
-29.30
-21.66
-14.04
-7.18
-1.20
4.18
9.43
14.84
20.37
25.66
30.21
33.64
35.78
36.77
36.94
36.65
36.17
35.64
35.03
34.27
33.26
31.99
30.49
28.82
26.99
24.97
22.70
20.10
17.13
13.78
10.10
6.20
2.23
-1.67
-5.37
-8.79
-11.96
-14.95
-17.95
-21.15
-24.75
-28.80
-33.13
-37.26
-40.48
-42.02
-41.33
-38.24
-33.02
-26.31
-18.85
-11.28
-4.04
2.60
8.53
13.69
18.04
21.63
24.51
26.73
28.30
29.15
29.28
28.75
27.78
26.69
25.73
25.05
24.58
24.14
23.53
22.59
21.26
19.55
17.50
15.19
12.70
10.13
7.56
5.03
2.52
-0.00
-2.55
-5.12
-7.62
-10.03
-12.34
-14.60
-17.00
-19.70
-22.86
-26.52
-30.55
-34.55
-37.93
-39.99
-40.14
-38.05
-33.85
-28.02
-21.24
-14.22
-7.45
-1.21
4.44
9.49
13.94
17.73
20.83
23.22
24.94
26.09
26.78
27.13
27.24
27.22
27.16
27.15
27.27
27.51
27.76
27.81
27.43
26.40
24.66
22.33
19.65
16.92
14.37
12.11
10.10
8.18
6.18
3.94
1.41
-1.35
-4.21
-6.98
-9.52
-11.82
-14.02
-16.39
-19.21
-22.63
-26.58
-30.70
-34.33
-36.71
-37.17
-35.34
-31.31
-25.59
-18.97
-12.25
-6.05
-0.62
4.05
8.11
11.72
14.86
17.47
19.42
20.70
21.43
21.83
22.10
22.39
22.70
22.99
23.16
23.21
23.14
23.03
22.85
22.52
21.87
20.76
19.09
16.93
14.42
11.78
9.25
7.02
5.17
3.63
2.23
0.68
-1.26
-3.68
-6.48
-9.42
-12.22
-14.70
-16.89
-18.98
-21.25
-23.92
-27.04
-30.39
-33.51
-35.77
-36.52
-35.28
-31.92
-26.72
-20.34
-13.64
-7.39
-2.12
1.97
4.98
7.15
8.69
9.74
10.41
10.80
11.11
11.52
12.19
13.11
14.09
14.84
15.08
14.69
13.72
12.44
11.15
10.08
9.30
8.67
7.96
6.98
5.64
4.03
2.30
0.56
-1.16
-2.96
-4.92
-7.04
-9.24
-11.35
-13.28
-15.02
-16.76
-18.76
-21.29
-24.48
-28.26
-32.29
-35.97
-38.58
-39.46
-38.24
-34.92
-29.92
-23.95
-17.75
-11.95
-6.92
-2.73
0.71
3.58
5.99
8.01
9.59
10.66
11.23
11.37
11.26
11.06
10.86
10.69
10.53
10.35
10.20
10.10
10.05
9.97
9.71
9.20
8.43
7.44
6.32
5.07
3.63
1.89
-0.16
-2.44
-4.77
-6.97
-8.95
-10.78
-12.60
-14.64
-17.07
-20.01
-23.47
-27.36
-31.43
-35.23
-38.09
-39.25
-38.12
-34.45
-28.58
-21.37
-13.89
-7.17
-1.80
2.07
4.68
6.39
7.52
8.25
8.73
9.03
9.25
9.44
9.56
9.52
9.24
8.74
8.20
7.82
7.79
8.11
8.65
9.15
9.30
8.86
7.67
5.68
3.00
-0.17
-3.54
-6.80
-9.73
-12.25
-14.39
-16.27
-17.98
-19.64
-21.38
-23.41
-26.03
-29.48
-33.78
-38.63
-43.35
-47.02
-48.76
-48.02
-44.72
-39.29
-32.48
-25.14
-17.98
-11.44
-5.66
-0.55
4.05
8.25
12.06
15.35
17.90
19.60
20.46
20.65
20.50
20.28
20.20
20.25
20.34
20.31
20.09
19.73
19.28
18.74
18.00
16.84
15.03
12.45
9.19
5.50
1.77
-1.67
-4.62
-7.09
-9.30
-11.63
-14.40
-17.89
-22.19
-27.17
-32.53
-37.73
-42.12
-44.95
-45.54
-43.45
-38.74
-31.93
-23.95
-15.85
-8.41
-2.00
3.47
8.32
12.81
16.96
20.53
23.18
24.71
25.20
24.99
24.52
24.10
23.81
23.48
22.92
22.02
20.87
19.66
18.58
17.61
16.51
14.89
12.44
9.07
5.04
0.82
-3.10
-6.44
-9.26
-11.90
-14.82
-18.45
-22.98
-28.34
-34.17
-39.83
-44.51
-47.35
-47.61
-44.92
-39.48
-31.98
-23.46
-14.96
-7.23
-0.62
4.90
9.54
13.48
16.79
19.44
21.36
22.48
22.81
22.42
21.46
20.07
18.42
16.64
14.84
13.07
11.35
9.61
7.70
5.40
2.47
-1.23
-5.74
-10.85
-16.27
-21.69
-26.86
-31.73
-36.40
-41.11
-46.10
-51.48
-56.98
-61.91
-65.22
-65.80
-62.85
-56.27
-46.72
-35.39
-23.54
-12.11
-1.47
8.44
17.84
26.81
35.17
42.60
48.83
53.82
57.76
60.95
63.63
65.80
67.29
67.90
67.53
66.36
64.73
63.03
61.42
59.75
57.58
54.44
50.02
44.36
37.86
31.10
24.60
18.67
13.28
8.16
2.92
-2.83
-9.31
-16.51
-24.17
-31.72
-38.39
-43.33
-45.86
-45.64
-42.88
-38.20
-32.47
-26.42
-20.51
-14.79
-9.13
-3.44
2.16
7.28
11.44
14.26
15.70
15.99
15.63
15.15
14.96
15.25
15.98
16.94
17.88
18.60
19.06
19.29
19.36
19.21
18.66
17.54
15.87
13.90
12.06
10.66
9.73
8.84
7.31
4.47
-0.01
-5.97
-12.84
-19.81
-25.96
-30.45
-32.65
-32.20
-29.20
-24.18
-17.93
-11.28
-4.82
1.26
7.03
12.67
18.20
23.45
28.11
31.89
34.66
36.50
37.61
38.22
38.51
38.58
38.46
38.22
37.93
37.69
37.61
37.65
37.65
37.38
36.57
35.08
32.92
30.19
27.01
23.43
19.43
14.88
9.66
3.68
-3.09
-10.56
-18.47
-26.32
-33.35
-38.71
-41.65
-41.84
-39.48
-35.30
-30.29
-25.29
-20.79
-16.78
-12.92
-8.79
-4.18
0.76
5.56
9.62
12.45
13.86
13.97
13.13
11.77
10.20
8.59
6.95
5.25
3.41
1.40
-0.82
-3.32
-6.17
-9.36
-12.76
-16.07
-18.97
-21.21
-22.81
-24.10
-25.69
-28.19
-31.93
-36.74
-41.81
-45.93
-47.78
-46.41
-41.56
-33.82
-24.45
-14.97
-6.67
-0.25
4.29
7.55
10.29
13.12
16.26
19.59
22.81
25.62
27.85
29.34
29.88
29.12
26.73
22.57
16.94
10.61
4.67
0.17
-2.23
-2.44
-0.90
1.67
4.45
6.86
8.50
9.26
9.18
8.43
7.24
5.79
4.19
2.51
0.79
-0.76
-1.76
-1.70
-0.12
3.18
7.97
13.69
19.66
25.28
30.24
34.50
38.14
41.23
43.78
45.76
47.25
48.45
49.69
51.22
53.07
55.00
56.53
57.19
56.67
54.91
52.03
48.24
43.80
38.93
33.85
28.78
23.92
19.34
15.07
10.99
7.00
3.01
-1.11
-5.49
-10.25
-15.38
-20.60
-25.34
-28.96
-30.95
-31.27
-30.30
-28.68
-27.03
-25.68
-24.70
-23.99
-23.53
-23.43
-23.84
-24.85
-26.28
-27.75
-28.80
-29.10
-28.56
-27.37
-25.89
-24.47
-23.37
-22.71
-22.47
-22.52
-22.74
-23.03
-23.39
-23.95
-24.88
-26.39
-28.59
-31.34
-34.24
-36.66
-37.90
-37.46
-35.15
-31.21
-26.20
-20.74
-15.41
-10.53
-6.20
-2.43
0.83
3.53
5.52
6.65
6.80
6.06
4.68
3.08
1.72
0.89
0.59
0.54
0.32
-0.45
-1.92
-3.97
-6.30
-8.52
-10.31
-11.45
-11.84
-11.46
-10.41
-8.92
-7.31
-5.81
-4.43
-2.83
-0.37
3.71
9.92
18.32
28.41
39.17
49.35
57.76
63.55
66.38
66.41
64.15
60.25
55.31
49.71
43.62
37.13
30.28
23.22
16.14
9.23
2.66
-3.51
-9.25
-14.56
-19.45
-23.92
-27.94
-31.53
-34.73
-37.62
-40.31
-42.96
-45.75
-48.84
-52.31
-56.11
-59.94
-63.30
-65.50
-65.93
-64.18
-60.28
-54.68
-48.12
-41.37
-34.97
-29.17
-23.94
-19.16
-14.78
-10.89
-7.62
-5.10
-3.34
-2.18
-1.41
-0.80
-0.20
0.40
0.92
1.19
1.03
0.35
-0.82
-2.30
-3.86
-5.37
-6.87
-8.63
-10.97
-14.14
-18.17
-22.82
-27.62
-31.95
-35.15
-36.65
-36.03
-33.22
-28.45
-22.32
-15.57
-8.88
-2.66
2.97
8.14
12.99
17.47
21.33
24.17
25.70
25.90
25.07
23.71
22.35
21.29
20.53
19.85
18.93
17.58
15.77
13.63
11.30
8.87
6.35
3.70
0.92
-2.03
-5.20
-8.74
-12.82
-17.57
-22.87
-28.29
-33.04
-36.18
-36.89
-34.79
-30.10
-23.50
-15.95
-8.34
-1.26
5.09
10.76
15.91
20.59
24.67
27.94
30.18
31.32
31.44
30.77
29.64
28.28
26.89
25.48
23.97
22.25
20.26
18.01
15.63
13.23
10.88
8.52
6.04
3.32
0.28
-3.08
-6.77
-10.82
-15.36
-20.44
-25.88
-31.16
-35.39
-37.59
-37.03
-33.49
-27.41
-19.68
-11.34
-3.27
3.99
10.30
15.72
20.35
24.22
27.20
29.10
29.78
29.22
27.61
25.23
22.47
19.66
17.02
14.64
12.48
10.44
8.41
6.30
4.08
1.75
-0.65
-3.13
-5.70
-8.39
-11.22
-14.19
-17.29
-20.55
-24.02
-27.73
-31.50
-34.84
-37.00
-37.13
-34.60
-29.33
-21.85
-13.14
-4.30
3.78
10.69
16.40
21.13
25.10
28.39
30.93
32.56
33.23
33.00
32.12
30.94
29.80
28.89
28.24
27.73
27.14
26.24
24.86
22.93
20.43
17.44
14.08
10.50
6.85
3.23
-0.32
-3.91
-7.71
-11.93
-16.76
-22.14
-27.71
-32.75
-36.30
-37.44
-35.59
-30.76
-23.55
-15.00
-6.23
1.88
8.89
14.78
19.76
24.04
27.71
30.74
32.98
34.38
35.00
35.00
34.58
33.86
32.86
31.53
29.86
27.98
26.10
24.42
22.98
21.60
19.93
17.61
14.51
10.79
6.86
3.20
0.17
-2.15
-3.97
-5.69
-7.73
-10.36
-13.59
-17.07
-20.15
-22.00
-21.79
-19.01
-13.61
-6.05
2.83
12.03
20.74
28.47
35.14
40.93
46.16
51.05
55.61
59.66
62.84
64.78
65.19
64.01
61.37
57.57
53.03
48.20
43.49
39.25
35.69
32.84
30.57
28.57
26.43
23.72
20.10
15.39
9.59
2.84
-4.74
-13.14
-22.52
-33.03
-44.54
-56.38
-67.31
-75.82
-80.66
-81.31
-78.27
-72.85
-66.63
-60.92
-56.38
-52.99
-50.41
-48.27
-46.41
-44.84
-43.57
-42.40
-40.98
-38.93
-36.05
-32.49
-28.60
-24.84
-21.50
-18.60
-16.01
-13.57
-11.31
-9.45
-8.34
-8.21
-9.10
-10.77
-12.89
-15.12
-17.25
-19.23
-21.15
-23.13
-25.30
-27.76
-30.48
-33.21
-35.49
-36.62
-35.88
-32.80
-27.39
-20.19
-12.14
-4.27
2.64
8.21
12.44
15.59
17.89
19.52
20.52
20.96
20.96
20.76
20.61
20.70
21.03
21.44
21.68
21.48
20.71
19.38
17.63
15.67
13.64
11.59
9.45
7.14
4.58
1.77
-1.27
-4.56
-8.19
-12.28
-16.75
-21.24
-25.08
-27.40
-27.50
-25.10
-20.50
-14.48
-8.02
-1.99
3.05
6.91
9.63
11.38
12.29
12.46
11.99
11.04
9.85
8.74
8.03
7.90
8.36
9.17
9.98
10.37
10.07
8.98
7.23
5.05
2.69
0.34
-1.94
-4.21
-6.55
-9.09
-11.92
-15.08
-18.48
-21.87
-24.77
-26.51
-26.40
-23.95
-19.08
-12.20
-4.14
4.10
11.68
18.07
23.18
27.20
30.37
32.90
34.83
36.18
36.97
37.34
37.46
37.52
37.64
37.83
38.05
38.15
37.96
37.27
35.87
33.62
30.55
26.80
22.66
18.38
14.09
9.73
5.16
0.19
-5.23
-10.98
-16.75
-22.09
-26.49
-29.45
-30.54
-29.53
-26.45
-21.69
-15.88
-9.81
-4.23
0.39
3.82
6.08
7.31
7.63
7.15
6.00
4.40
2.69
1.23
0.31
-0.02
0.06
0.24
0.19
-0.28
-1.21
-2.45
-3.80
-5.09
-6.27
-7.43
-8.79
-10.62
-13.16
-16.43
-20.21
-23.95
-26.90
-28.26
-27.50
-24.54
-19.76
-13.92
-7.87
-2.25
2.63
6.78
10.34
13.33
15.60
16.87
16.90
15.72
13.66
11.31
9.25
7.87
7.20
6.94
6.69
6.08
4.95
3.38
1.55
-0.34
-2.23
-4.16
-6.27
-8.68
-11.48
-14.69
-18.30
-22.23
-26.25
-29.98
-32.86
-34.27
-33.69
-30.95
-26.27
-20.21
-13.55
-6.99
-1.03
4.11
8.39
11.90
14.69
16.76
18.07
18.60
18.41
17.74
16.90
16.19
15.77
15.55
15.29
14.70
13.57
11.96
10.05
8.12
6.33
4.70
3.03
1.07
-1.41
-4.56
-8.39
-12.79
-17.49
-22.04
-25.83
-28.15
-28.39
-26.25
-21.86
-15.81
-8.97
-2.24
3.75
8.74
12.77
16.02
18.64
20.64
21.93
22.42
22.13
21.20
19.86
18.35
16.85
15.46
14.11
12.67
10.96
8.88
6.48
3.94
1.47
-0.77
-2.81
-4.90
-7.36
-10.48
-14.35
-18.88
-23.76
-28.57
-32.83
-36.07
-37.87
-37.88
-35.98
-32.23
-26.99
-20.77
-14.20
-7.83
-2.10
2.75
6.61
9.46
11.28
12.08
11.91
10.94
9.52
8.08
6.98
6.43
6.33
6.41
6.31
5.80
4.81
3.40
1.61
-0.56
-3.20
-6.35
-9.97
-13.85
-17.75
-21.45
-24.95
-28.38
-31.99
-35.99
-40.35
-44.72
-48.43
-50.66
-50.67
-48.08
-43.01
-36.02
-27.96
-19.70
-11.87
-4.81
1.41
6.80
11.43
15.28
18.36
20.70
22.40
23.56
24.25
24.52
24.38
23.85
22.98
21.92
20.87
20.02
19.51
19.40
19.59
19.87
19.95
19.58
18.61
17.10
15.25
13.35
11.57
9.87
7.93
5.34
1.83
-2.46
-6.97
-10.84
-13.25
-13.75
-12.38
-9.64
-6.20
-2.62
0.79
4.03
7.16
10.25
13.20
15.79
17.83
19.21
19.99
20.34
20.50
20.60
20.72
20.84
20.97
21.16
21.55
22.31
23.45
24.87
26.28
27.33
27.73
27.33
26.18
24.43
22.21
19.53
16.33
12.50
7.98
2.85
-2.74
-8.51
-14.05
-18.81
-22.16
-23.45
-22.27
-18.63
-13.00
-6.21
0.83
7.48
13.48
18.90
23.96
28.77
33.25
37.18
40.32
42.57
44.06
45.09
45.91
46.66
47.25
47.44
46.98
45.78
43.95
41.77
39.56
37.46
35.40
33.06
29.98
25.77
20.30
13.69
6.35
-1.21
-8.58
-15.52
-22.09
-28.55
-35.28
-42.55
-50.45
-58.70
-66.74
-73.72
-78.70
-80.86
-79.70
-75.18
-67.71
-58.02
-47.01
-35.53
-24.25
-13.67
-4.15
4.05
10.73
15.75
19.06
20.77
21.16
20.60
19.54
18.40
17.46
16.85
16.55
16.46
16.51
16.70
17.08
17.68
18.39
19.01
19.27
19.01
18.21
17.06
15.85
14.85
14.29
14.28
14.88
16.09
17.83
19.94
22.11
23.94
25.01
25.06
24.13
22.55
20.91
19.80
19.65
20.56
22.34
24.60
26.94
29.15
31.19
33.12
34.98
36.74
38.24
39.33
39.86
39.85
39.40
38.69
37.79
36.66
35.09
32.81
29.67
25.85
21.86
18.46
16.43
16.26
17.98
21.25
25.41
29.72
33.50
36.21
37.46
37.00
34.74
30.79
25.44
19.19
12.63
6.33
0.71
-4.05
-8.06
-11.59
-14.97
-18.42
-21.88
-25.10
-27.72
-29.42
-30.09
-29.82
-28.88
-27.57
-26.17
-24.88
-23.83
-23.07
-22.56
-22.20
-21.85
-21.40
-20.86
-20.29
-19.83
-19.57
-19.46
-19.37
-19.16
-18.74
-18.14
-17.52
-16.98
-16.61
-16.33
-16.05
-15.67
-15.21
-14.75
-14.44
-14.35
-14.44
-14.61
-14.74
-14.76
-14.75
-14.82
-15.13
-15.76
-16.64
-17.61
-18.47
-19.12
-19.59
-20.05
-20.66
-21.49
-22.41
-23.14
-23.42
-23.09
-22.18
-20.89
-19.41
-17.92
-16.45
-15.02
-13.66
-12.43
-11.46
-10.82
-10.53
-10.54
-10.67
-10.75
-10.65
-10.29
-9.73
-9.10
-8.49
-7.94
-7.44
-6.91
-6.31
-5.63
-4.92
-4.21
-3.49
-2.74
-1.97
-1.23
-0.67
-0.41
-0.48
-0.81
-1.19
-1.42
-1.36
-0.99
-0.41
0.21
0.75
1.18
1.51
1.85
2.24
2.70
3.16
3.58
3.96
4.44
5.21
6.47
8.33
10.74
13.46
16.12
18.31
19.71
20.23
19.96
19.17
18.12
16.96
15.64
13.97
11.82
9.14
6.11
3.04
0.22
-2.06
-3.69
-4.59
-4.77
-4.33
-3.48
-2.61
-2.16
-2.57
-4.12
-6.86
-10.58
-14.86
-19.20
-23.15
-26.36
-28.72
-30.21
-30.82
-30.42
-28.73
-25.55
-20.93
-15.34
-9.58
-4.51
-0.70
1.86
3.69
5.60
8.28
12.00
16.53
21.28
25.60
29.06
31.50
33.05
33.82
33.79
32.72
30.28
26.28
20.88
14.54
7.86
1.31
-4.89
-10.76
-16.41
-21.86
-27.05
-31.95
-36.62
-41.22
-45.72
-49.83
-52.90
-54.15
-53.05
-49.55
