1694472706.00
64.000000
-0.00
-0.00
-0.00
-0.00
-0.00
-0.00
-0.00
-0.00
-0.00
-0.00
0.00
0.01
0.01
-0.00
-0.03
-0.05
-0.05
0.00
0.13
0.36
0.66
1.01
1.37
1.72
2.06
2.40
2.79
3.24
3.80
4.43
5.08
5.70
6.27
6.81
7.38
8.04
8.87
9.95
11.21
12.52
13.78
14.95
16.09
17.35
18.94
20.95
23.55
26.48
29.45
32.21
34.71
37.14
39.94
43.58
48.31
54.39
61.32
68.48
75.31
81.60
87.58
93.89
101.26
110.10
120.76
132.56
144.66
156.35
167.40
178.21
189.64
202.95
216.46
231.84
249.15
268.29
288.36
307.23
321.50
327.18
320.91
301.09
268.89
226.95
179.07
128.95
79.53
32.75
-10.37
-49.63
-85.66
-119.36
-152.20
-185.16
-218.04
-249.33
-276.89
-299.01
-315.36
-327.35
-337.46
-348.90
-364.42
-385.74
-412.87
-443.20
-471.21
-488.63
-486.22
-456.89
-399.50
-321.12
-236.19
-162.51
-115.31
-101.90
-119.54
-157.37
-201.24
-238.96
-263.18
-271.19
-262.67
-237.45
-195.35
-138.22
-72.56
-10.02
35.20
51.77
36.52
-3.37
-53.28
-97.26
-124.39
-131.93
-123.75
-105.52
-79.97
-45.24
2.44
63.67
132.05
193.96
233.10
237.33
204.45
143.39
70.68
3.75
-45.05
-70.94
-74.95
-59.80
-26.64
24.85
93.45
172.77
250.03
308.59
333.58
317.66
263.70
183.93
95.34
14.39
-46.74
-81.35
-87.27
-65.34
-18.95
45.57
118.22
185.53
232.66
247.14
223.07
163.58
80.87
-7.23
-82.67
-131.99
-149.05
-134.60
-94.00
-35.13
32.57
98.09
149.23
174.67
167.80
129.89
70.67
5.50
-50.09
-85.47
-97.30
-88.49
-65.07
-33.47
0.72
32.37
56.54
68.91
67.39
53.48
32.25
10.37
-6.28
-14.87
-15.99
-12.26
-6.64
-0.72
5.55
12.79
20.84
28.02
31.52
28.82
19.39
5.21
-10.03
-22.61
-30.35
-33.13
-31.83
-27.04
-18.29
-4.66
13.64
33.77
50.55
58.31
53.67
37.81
16.37
-2.85
-13.30
-12.47
-2.31
12.60
28.08
42.47
56.75
72.68
90.40
107.39
119.43
123.01
117.57
105.86
92.41
81.14
73.82
70.45
71.17
77.94
94.39
123.53
164.79
212.36
256.41
286.47
295.53
282.47
251.55
209.83
164.01
118.45
75.10
34.53
-2.77
-36.03
-64.69
-89.20
-111.47
-134.56
-162.15
-197.45
-241.91
-293.88
-348.09
-396.09
-428.51
-437.97
-421.66
-382.02
-325.18
-258.07
-186.13
-112.65
-40.15
27.95
86.53
130.10
155.10
161.85
154.72
140.30
124.74
111.75
102.17
94.82
88.23
81.73
75.79
71.62
70.21
71.69
75.14
78.81
80.73
79.50
74.78
67.38
58.81
50.51
43.19
36.48
29.22
20.05
8.07
-6.71
-23.39
-40.57
-57.06
-72.24
-86.22
-99.68
-113.33
-127.38
-141.26
-153.70
-163.22
-168.84
-170.50
-169.34
-167.33
-166.56
-168.46
-173.47
-180.98
-189.72
-198.30
-205.54
-210.70
-213.33
-213.04
-209.57
-202.80
-192.93
-180.58
-166.58
-151.83
-136.90
-122.02
-107.02
-91.63
-75.64
-58.94
-41.61
-23.84
-5.88
11.82
28.62
43.77
56.72
67.24
75.62
82.39
88.16
93.35
98.10
102.33
106.01
109.09
111.68
113.95
116.00
117.84
119.25
119.82
119.15
117.04
113.66
109.63
105.81
102.84
100.93
99.75
98.78
97.71
96.66
95.99
95.90
96.07
95.62
93.56
89.38
83.31
76.36
69.77
64.51
61.00
59.17
58.80
59.93
62.79
67.57
73.93
80.85
86.79
90.25
90.48
87.72
83.16
78.35
74.59
72.69
72.89
75.17
79.47
85.60
93.03
100.56
106.48
109.03
107.10
100.76
91.38
81.22
72.55
66.85
64.41
64.44
65.51
66.22
65.50
62.78
57.84
50.51
40.77
28.75
14.81
-0.39
-15.99
-31.21
-45.47
-58.37
-69.71
-79.22
-86.57
-91.43
-93.55
-92.99
-90.35
-86.67
-83.32
-81.58
-82.22
-85.27
-90.13
-95.78
-101.20
-105.49
-107.81
-107.42
-103.83
-97.07
-88.05
-78.60
-70.88
-66.59
-66.26
-68.92
-72.70
-75.69
-76.79
-76.20
-75.06
-74.77
-76.16
-79.17
-82.96
-86.44
-88.95
-90.51
-91.79
-93.62
-96.44
-99.93
-103.16
-104.85
-103.97
-99.89
-92.35
-81.22
-66.43
-48.28
-27.87
-7.47
9.84
21.08
24.43
19.97
9.50
-4.52
-19.94
-35.45
-50.41
-64.14
-75.59
-83.65
-88.08
-90.28
-93.34
-100.91
-115.72
-138.26
-166.30
-195.77
-222.07
-241.43
-251.75
-252.60
-244.83
-230.01
-209.89
-186.13
-160.25
-133.61
-107.26
-82.06
-58.38
-36.02
-14.22
8.11
32.01
57.82
84.92
111.73
136.18
156.41
171.56
181.96
188.89
194.08
198.95
204.29
210.14
215.91
220.66
223.31
223.00
219.34
212.60
203.59
193.30
182.37
170.81
158.15
143.85
127.46
108.66
87.19
63.17
37.71
13.48
-5.51
-15.18
-13.30
-0.70
18.73
39.73
57.93
71.27
80.05
85.62
89.15
90.97
91.25
90.91
91.90
96.57
106.28
120.56
137.04
152.45
164.00
170.28
171.30
168.05
161.80
153.43
143.14
130.31
113.44
90.23
58.34
17.51
-29.79
-77.40
-116.69
-139.54
-141.45
-123.14
-89.81
-48.48
-6.06
31.97
61.58
79.03
80.54
63.33
27.21
-24.70
-86.92
-153.37
-218.58
-277.67
-325.67
-357.20
-367.83
-356.13
-324.97
-280.51
-230.42
-181.03
-135.89
-96.31
-62.91
-36.19
-16.19
-1.50
10.75
23.36
37.10
49.66
57.00
56.25
48.37
38.48
33.37
37.70
51.21
68.98
84.34
92.41
92.30
86.88
80.57
76.75
76.18
77.40
78.34
77.89
76.54
75.73
76.66
79.22
81.83
82.36
79.19
72.09
62.40
52.38
44.08
38.51
35.22
32.67
28.96
22.66
13.33
1.57
-11.31
-23.77
-34.44
-42.71
-48.62
-52.74
-55.84
-58.38
-60.22
-60.46
-58.13
-52.64
-44.18
-33.67
-22.41
-11.50
-1.38
8.15
17.44
26.44
34.48
40.54
43.83
44.32
42.81
40.82
39.83
40.37
41.93
42.96
41.62
36.52
27.01
12.98
-5.15
-26.25
-48.20
-67.97
-82.45
-89.92
-91.19
-89.75
-90.29
-96.02
-106.89
-119.43
-128.32
-129.09
-120.09
-102.91
-80.21
-56.08
-33.09
-12.00
7.26
24.45
38.63
48.58
53.69
54.22
51.47
47.37
43.67
41.28
40.20
39.71
38.88
37.05
34.05
30.10
25.85
21.97
18.81
16.43
14.65
13.20
11.82
10.21
8.09
5.30
1.83
-2.12
-6.11
-9.54
-11.91
-13.00
-13.26
-13.61
-15.02
-18.11
-22.82
-28.28
-33.20
-36.53
-37.80
-37.50
-36.73
-36.70
-38.31
-42.19
-48.68
-57.56
-67.47
-75.39
-77.03
-68.32
-47.56
-16.91
17.82
49.30
71.62
82.64
84.12
80.12
74.53
69.33
64.56
59.41
53.62
48.00
43.89
42.08
42.18
42.76
42.24
39.55
34.90
29.52
24.96
22.39
21.99
22.93
23.82
23.41
21.19
17.66
14.01
11.51
10.88
11.97
13.86
15.29
15.49
14.11
11.73
9.34
7.94
8.31
10.87
15.43
20.79
24.71
24.49
18.48
7.27
-5.76
-15.53
-17.67
-10.67
3.11
18.59
30.57
36.24
36.14
33.32
31.23
31.90
35.53
41.12
47.56
53.76
58.22
58.44
51.44
35.43
10.85
-18.71
-47.81
-71.34
-86.54
-93.76
-95.49
-94.48
-92.29
-89.19
-84.70
-78.97
-73.22
-69.18
-68.21
-70.68
-76.02
-82.89
-89.09
-91.64
-87.42
-74.14
-51.85
-23.63
5.10
28.58
42.96
47.69
45.27
39.42
33.15
27.58
22.35
16.87
11.43
7.39
6.36
9.04
14.62
21.11
26.28
28.47
27.39
23.98
19.78
16.16
13.77
12.32
10.92
8.60
4.88
0.12
-4.72
-8.44
-10.12
-9.52
-7.12
-3.87
-0.81
1.34
2.43
2.74
2.85
3.25
4.17
5.54
7.04
8.44
9.55
10.37
10.93
11.25
11.35
11.58
12.66
15.40
20.07
25.71
29.91
29.44
21.65
5.86
-15.89
-39.29
-59.10
-70.80
-71.50
-60.00
-37.34
-5.83
30.47
66.11
94.85
111.08
111.60
97.07
72.19
44.19
20.35
5.35
0.08
1.95
6.74
10.54
11.09
7.96
1.96
-5.54
-13.12
-19.41
-23.11
-23.18
-19.15
-11.41
-1.28
9.32
18.52
25.09
28.74
30.07
30.16
30.08
30.57
31.86
33.74
35.69
37.10
37.42
36.32
33.78
30.13
25.94
21.84
18.28
15.39
12.95
10.56
7.83
4.60
0.93
-2.94
-6.75
-10.31
-13.54
-16.45
-19.09
-21.52
-23.87
-26.32
-29.11
-32.46
-36.54
-41.38
-46.84
-52.63
-58.31
-63.47
-67.69
-70.64
-71.97
-71.31
-68.24
-62.48
-54.11
-43.75
-32.49
-21.61
-12.14
-4.53
1.40
6.17
10.23
13.61
15.99
16.93
16.27
14.38
12.09
10.28
9.49
9.68
10.44
11.19
11.43
10.91
9.56
7.48
4.78
1.61
-1.65
-4.46
-6.17
-6.47
-5.66
-4.58
-4.20
-5.09
-7.16
-9.64
-11.64
-12.64
-13.06
-14.05
-16.64
-20.86
-25.65
-29.35
-30.43
-28.23
-22.90
-15.78
-8.79
-3.38
0.19
2.71
5.40
9.44
15.14
22.57
30.29
36.05
38.03
36.11
31.94
28.05
27.22
30.67
39.09
50.77
62.24
69.69
70.37
62.90
46.88
23.07
-8.36
-41.00
-64.98
-74.09
-71.32
-63.98
-56.74
-50.23
-42.53
-36.68
-31.44
-28.79
-32.36
-45.10
-67.95
-100.14
-141.51
-177.44
-198.52
-198.11
-175.45
-134.28
-81.26
-24.81
26.84
67.50
95.31
110.95
118.93
123.45
126.61
129.37
129.00
123.82
113.73
100.49
85.35
70.25
56.29
43.59
31.34
18.42
4.67
-9.11
-21.19
-29.95
-34.09
-33.52
-29.20
-22.79
-15.92
-9.15
-2.08
6.33
16.43
27.71
38.59
46.98
51.15
50.40
45.70
39.04
32.61
27.72
24.52
22.28
20.02
16.93
12.62
7.06
0.30
-7.46
-15.70
-23.47
-29.41
-32.35
-31.81
-28.36
-23.32
-18.18
-14.08
-11.57
-10.83
-12.00
-15.31
-20.89
-28.39
-36.81
-44.65
-50.39
-52.98
-52.13
-48.17
-41.78
-33.71
-24.66
-15.28
-6.21
1.96
8.84
14.24
18.18
20.73
21.99
22.02
20.96
19.12
16.98
15.05
13.72
13.10
13.08
13.41
13.81
14.12
14.22
14.07
13.70
13.14
12.52
11.98
11.63
11.47
11.40
11.24
10.85
10.21
9.38
8.50
7.67
6.87
6.02
4.98
3.65
2.06
0.29
-1.55
-3.40
-5.31
-7.38
-9.64
-11.90
-13.77
-14.70
-14.26
-12.38
-9.40
-5.99
-2.92
-0.75
0.24
0.14
-0.81
-2.29
-3.97
-5.57
-6.83
-7.56
-7.71
-7.35
-6.71
-6.10
-5.84
-6.14
-7.11
-8.64
-10.46
-12.09
-12.99
-12.74
-11.12
-8.27
-4.55
-0.46
3.51
6.98
9.68
11.46
12.27
12.19
11.39
10.12
8.59
7.01
5.53
4.32
3.59
3.51
4.08
5.13
6.27
7.11
7.42
7.16
6.49
5.56
4.39
2.91
1.05
-1.08
-3.13
-4.66
-5.31
-5.06
-4.24
-3.46
-3.33
-4.23
-6.18
-8.89
-11.91
-14.74
-17.04
-18.55
-19.14
-18.72
-17.29
-14.94
-11.94
-8.62
-5.33
-2.26
0.57
3.27
5.92
8.50
10.84
12.69
13.91
14.54
14.77
14.86
14.96
15.02
14.83
14.16
12.84
10.97
8.80
6.72
5.03
3.87
3.15
2.61
1.97
1.08
-0.04
-1.24
-2.29
-3.01
-3.41
-3.64
-3.96
-4.65
-5.93
-7.86
-10.37
-13.23
-16.06
-18.44
-19.95
-20.28
-19.30
-17.16
-14.22
-10.95
-7.83
-5.17
-3.05
-1.38
-0.01
1.16
2.07
2.58
2.57
2.03
1.17
0.32
-0.21
-0.27
0.10
0.64
1.10
1.29
1.23
1.04
0.88
0.83
0.83
0.71
0.30
-0.51
-1.79
-3.49
-5.51
-7.69
-9.85
-11.82
-13.50
-14.90
-16.15
-17.44
-18.95
-20.72
-22.58
-24.10
-24.71
-23.80
-20.94
-16.01
-9.32
-1.55
6.30
13.22
18.42
21.59
22.92
23.04
22.74
22.70
23.28
24.44
25.91
27.29
28.30
28.86
29.05
29.04
28.99
28.99
29.09
29.30
29.60
29.88
29.98
29.64
28.59
26.59
23.55
19.57
14.97
10.18
5.65
1.74
-1.38
-3.74
-5.53
-6.96
-8.16
-9.16
-9.87
-10.23
-10.19
-9.78
-9.03
-7.95
-6.56
-4.96
-3.39
-2.16
-1.52
-1.49
-1.76
-1.79
-1.03
0.80
3.62
6.95
10.15
12.60
13.98
14.26
13.64
12.46
10.95
9.28
7.55
5.88
4.49
3.60
3.29
3.42
3.62
3.44
2.55
0.88
-1.33
-3.67
-5.67
-7.05
-7.75
-7.99
-8.20
-8.93
-10.68
-13.70
-17.80
-22.34
-26.38
-29.04
-29.69
-28.11
-24.52
-19.39
-13.38
-7.14
-1.31
3.40
6.35
7.33
6.78
5.74
5.58
7.50
12.19
19.48
28.17
36.26
41.85
43.92
42.54
38.79
34.22
30.45
28.49
28.20
28.43
27.85
25.74
22.06
17.27
12.13
7.82
5.75
6.85
11.05
17.32
23.80
27.72
25.86
15.51
-4.26
-29.49
-52.31
-66.66
-71.68
-69.99
-64.93
-58.95
-53.11
-46.94
-39.62
-31.18
-22.95
-16.65
-13.35
-13.05
-14.71
-16.85
-17.47
-15.33
-10.60
-4.97
-0.69
0.56
-1.83
-7.23
-14.92
-22.35
-27.98
-31.52
-34.10
-37.46
-42.94
-51.14
-60.40
-71.40
-83.59
-95.45
-104.07
-105.54
-96.22
-74.70
-43.27
-7.72
24.44
47.68
60.00
63.22
61.27
57.83
54.70
51.72
48.07
43.30
38.43
34.96
33.91
35.00
36.88
37.89
36.72
33.32
28.59
24.20
21.57
21.26
22.81
24.98
26.37
26.07
24.05
21.05
18.31
16.93
17.33
19.16
21.50
23.35
23.99
23.36
21.99
20.60
19.98
20.68
22.92
26.39
30.27
33.16
33.51
30.03
22.29
11.06
-1.87
-14.29
-24.29
-30.85
-34.01
-34.65
-33.93
-32.83
-31.89
-31.28
-30.94
-30.74
-30.47
-29.88
-28.61
-26.35
-22.95
-18.42
-13.17
-7.91
-3.40
-0.22
1.48
1.97
1.76
1.38
1.16
1.21
1.53
2.10
2.88
3.74
4.47
4.78
4.47
3.58
2.44
1.55
1.38
2.08
3.38
4.71
5.49
5.39
4.49
3.21
2.06
1.41
1.31
1.54
1.69
1.44
0.71
-0.35
-1.39
-2.06
-2.16
-1.74
-1.07
-0.54
-0.47
-0.94
-1.83
-2.82
-3.53
-3.64
-2.96
-1.52
0.44
2.50
4.18
5.07
5.03
4.24
3.12
2.14
1.56
1.37
1.32
1.07
0.47
-0.48
-1.63
-2.78
-3.68
-4.08
-3.69
-2.36
-0.28
1.87
3.02
2.13
-1.25
-6.62
-12.61
-17.54
-20.18
-20.14
-17.89
-14.39
-10.48
-6.65
-3.01
0.32
3.14
5.06
5.80
5.40
4.25
2.93
1.88
1.26
0.83
0.20
-0.94
-2.61
-4.49
-6.05
-6.77
-6.35
-4.81
-2.47
0.23
2.92
5.46
7.93
10.53
13.39
16.44
19.34
21.63
22.88
22.91
21.86
20.13
18.21
16.50
15.18
14.26
13.70
13.49
13.67
14.19
14.75
14.73
13.34
9.89
4.10
-3.76
-12.87
-22.10
-30.33
-36.67
-40.56
-41.84
-40.66
-37.43
-32.74
-27.33
-21.97
-17.30
-13.71
-11.26
-9.68
-8.56
-7.46
-6.06
-4.26
-2.12
0.22
2.57
4.80
6.78
8.39
9.53
10.14
10.22
9.79
8.92
7.71
6.28
4.82
3.53
2.63
2.20
2.20
2.51
2.94
3.36
3.73
4.05
4.28
4.33
4.05
3.41
2.50
1.59
0.98
0.88
1.31
2.06
2.81
3.32
3.53
3.52
3.45
3.39
3.21
2.70
1.65
0.03
-1.98
-4.01
-5.63
-6.49
-6.42
-5.46
-3.84
-1.89
0.08
1.88
3.43
4.78
5.94
6.85
7.33
7.21
6.44
5.18
3.80
2.69
2.14
2.18
2.63
3.23
3.71
3.96
3.98
3.81
3.57
3.44
3.62
4.28
5.51
7.20
9.07
10.76
11.98
12.57
12.57
12.08
11.15
9.78
8.02
6.04
4.27
3.28
3.60
5.51
8.80
12.80
16.59
19.40
20.92
21.31
21.14
21.04
21.54
22.65
23.95
24.66
24.07
21.83
18.09
13.39
8.60
4.67
2.19
1.19
1.13
1.22
0.94
0.03
-1.45
-3.10
-4.23
-4.28
-2.93
-0.42
2.37
4.01
2.43
-4.71
-19.34
-39.85
-61.95
-79.56
-88.26
-87.51
-79.69
-68.13
-55.47
-43.16
-31.47
-20.53
-10.63
-2.51
3.06
6.17
7.54
8.31
9.57
12.04
15.63
19.57
22.82
24.53
24.91
24.65
24.55
25.09
26.21
27.19
27.10
25.11
20.37
13.88
6.72
-0.25
-6.85
-13.55
-21.22
-30.60
-40.48
-50.78
-60.25
-67.72
-72.46
-74.69
-75.41
-75.84
-77.12
-80.16
-85.84
-94.07
-103.63
-111.50
-113.29
-104.80
-84.08
-53.11
-17.62
14.80
38.14
49.98
51.96
48.21
42.83
38.24
34.75
31.60
28.21
25.03
23.09
23.13
25.32
28.66
32.12
34.84
36.67
37.90
39.05
40.42
41.95
43.36
44.39
45.06
45.66
46.58
47.99
49.68
51.19
51.90
51.41
49.70
47.27
44.95
43.75
44.67
48.04
52.85
56.32
54.30
42.93
21.01
-8.69
-39.57
-63.46
-73.99
-69.09
-51.82
-28.79
-7.45
6.68
10.82
4.83
-9.49
-29.13
-50.24
-68.54
-80.13
-82.56
-75.38
-60.49
-41.36
-21.68
-4.23
9.59
19.70
26.99
30.85
31.95
31.35
30.30
29.89
30.84
33.27
36.77
40.65
44.21
47.21
49.65
51.59
53.00
53.73
53.50
52.11
49.51
45.93
42.03
38.48
35.75
34.04
33.27
33.13
33.25
33.28
32.98
32.38
31.51
30.41
29.11
27.68
26.29
25.23
24.80
25.20
26.43
28.09
29.44
29.62
27.84
23.70
17.20
8.82
-0.67
-10.31
-19.13
-26.36
-31.48
-34.30
-35.01
-34.02
-31.87
-29.07
-25.94
-22.64
-19.22
-15.77
-12.56
-10.03
-8.71
-8.92
-10.64
-13.40
-16.49
-19.25
-21.39
-23.06
-24.58
-26.18
-27.77
-28.98
-29.47
-29.23
-28.65
-28.34
-28.69
-29.59
-30.50
-30.71
-29.85
-28.12
-26.25
-25.11
-25.30
-26.78
-28.92
-30.60
-30.63
-28.17
-22.95
-15.48
-6.86
1.56
8.69
14.09
18.21
22.18
27.13
33.50
40.52
46.25
48.47
45.84
38.85
30.05
23.13
21.41
26.48
37.60
52.03
66.11
76.30
79.83
74.76
60.08
36.04
4.55
-30.91
-66.24
-98.57
-127.88
-157.33
-191.37
-232.49
-278.56
-322.27
-353.52
-363.56
-348.84
-312.35
-262.00
-206.81
-153.11
-102.77
-54.25
-5.46
43.41
88.84
125.16
147.39
153.89
147.37
133.81
119.85
110.04
105.25
103.12
100.02
93.43
83.36
72.15
62.96
57.84
56.54
56.66
55.05
49.58
40.35
29.67
20.89
16.65
17.68
22.51
28.39
32.60
33.64
31.52
27.35
22.49
17.72
13.12
8.26
2.80
-3.18
-9.11
-14.33
-18.40
-21.31
-23.46
-25.37
-27.45
-29.87
-32.56
-35.23
-37.51
-38.92
-39.01
-37.47
-34.30
-29.88
-24.90
-20.12
-16.12
-13.17
-11.20
-9.87
-8.74
-7.36
-5.25
-1.99
2.68
8.76
15.89
23.37
30.34
36.11
40.38
43.37
45.63
47.70
49.81
51.72
52.94
52.99
51.74
49.34
46.15
42.40
38.04
32.89
26.80
19.97
12.95
6.40
0.87
-3.54
-7.20
-10.67
-14.41
-18.42
-22.11
-24.49
-24.54
-21.68
-16.03
-8.35
0.31
9.02
17.28
25.04
32.46
39.55
46.02
51.30
54.85
56.44
56.29
54.98
53.19
51.39
49.71
47.96
45.79
42.87
39.12
34.72
30.06
25.69
22.07
19.52
18.11
17.60
17.54
17.37
16.67
15.23
13.10
10.57
8.03
5.88
4.44
3.95
4.38
5.43
6.48
6.71
5.37
2.08
-2.96
-9.03
-15.13
-20.24
-23.69
-25.25
-25.20
-24.19
-23.02
-22.32
-22.34
-22.75
-22.78
-21.57
-18.65
-14.25
-9.35
-5.44
-3.98
-5.96
-11.58
-20.22
-30.54
-40.89
-49.50
-54.88
-56.09
-52.91
-45.99
-36.65
-26.61
-17.45
-10.16
-4.91
-1.24
1.50
3.66
5.12
5.50
4.56
2.55
0.07
-2.24
-4.29
-6.57
-9.89
-14.78
-20.96
-27.40
-32.69
-35.72
-36.13
-34.30
-31.00
-26.92
-22.57
-18.33
-14.55
-11.62
-9.68
-8.53
-7.70
-6.68
-5.22
-3.45
-1.62
0.14
2.12
4.91
8.86
13.70
18.54
22.35
24.48
25.14
25.23
25.91
28.23
32.38
37.66
42.78
46.41
47.54
45.67
40.84
33.72
26.08
19.61
15.27
13.02
11.97
10.88
8.76
5.24
0.66
-3.57
-6.83
-9.66
-12.91
-16.08
-16.74
-10.87
4.87
31.24
66.58
105.77
141.86
168.59
182.48
182.76
170.82
148.45
111.70
62.73
10.15
-34.99
-65.71
-81.44
-86.45
-85.56
-82.70
-79.78
-75.97
-70.29
-62.91
-55.26
-49.18
-48.09
-52.15
-60.81
-72.70
-85.23
-96.57
-106.31
-115.57
-121.93
-126.91
-131.78
-137.66
-145.24
-154.10
-162.93
-168.95
-168.01
-155.68
-130.14
-92.85
-49.60
-8.36
24.08
44.57
54.22
56.94
56.96
56.31
55.93
54.95
53.15
51.63
52.12
55.83
62.49
70.38
76.95
80.26
79.95
77.09
73.59
71.44
72.04
75.84
82.43
90.52
98.49
104.78
107.75
106.05
99.17
87.67
72.97
56.92
41.21
24.86
8.59
-6.55
-19.42
-28.97
-34.69
-36.98
-37.14
-36.93
-37.81
-39.93
-42.68
-44.94
-45.58
-43.97
-40.18
-34.87
-29.08
-23.97
-20.21
-18.32
-18.24
-19.29
-20.39
-20.43
-18.71
-15.16
-10.30
-4.70
1.03
6.49
11.45
15.67
18.78
20.36
20.14
18.18
15.04
11.46
8.24
5.94
4.76
4.57
4.98
5.48
5.55
4.69
2.48
-1.28
-6.40
-12.16
-17.41
-20.90
-21.80
-20.02
-16.30
-11.82
-7.62
-4.11
-0.99
2.38
6.48
11.17
15.76
19.31
21.17
21.29
20.15
18.47
16.85
15.56
14.57
13.73
12.98
12.37
12.00
11.91
12.04
12.20
12.13
11.55
10.19
7.86
4.55
0.47
-3.94
-8.16
-11.75
-14.56
-16.85
-19.18
-22.19
-26.39
-31.95
-38.71
-46.21
-53.96
-61.46
-68.56
-75.36
-82.25
-89.76
-98.36
-108.25
-119.19
-130.41
-140.67
-148.48
-152.38
-151.19
-144.29
-131.79
-114.55
-94.12
-72.30
-50.73
-30.44
-11.77
5.44
21.42
36.08
48.99
59.62
67.75
73.75
78.39
82.47
86.39
89.91
92.48
93.61
93.23
91.78
89.97
88.44
87.56
87.22
87.08
86.71
85.78
84.12
81.76
78.84
75.62
72.39
69.33
66.50
63.89
61.35
58.67
55.67
52.33
48.85
45.65
43.15
41.61
41.12
41.51
42.31
43.04
43.49
43.76
44.30
45.33
46.86
48.76
50.85
52.62
53.72
54.17
54.41
55.32
57.21
59.99
63.45
67.25
70.41
72.01
71.52
68.93
65.16
60.62
55.64
50.58
45.54
39.29
30.18
16.75
-1.74
-24.53
-51.14
-80.92
-111.64
-138.04
-155.43
-162.44
-161.47
-160.94
-161.80
-162.37
-160.46
-154.84
-141.88
-122.33
-99.02
-75.36
-54.10
-36.26
-22.85
-14.48
-11.10
-11.91
-16.24
-22.39
-27.72
-29.30
-24.41
-12.67
4.28
23.58
42.09
56.50
64.46
64.73
57.07
42.53
22.76
0.36
-21.24
-38.63
-49.94
-55.05
-55.50
-53.67
-51.59
-50.71
-51.85
-55.42
-61.77
-71.23
-83.42
-96.90
-109.39
-118.52
-122.92
-122.59
-118.54
-112.09
-104.27
-95.59
-86.31
-76.93
-68.30
-61.39
-56.77
-54.21
-52.81
-51.36
-48.83
-44.66
-38.69
-31.01
-21.73
-10.95
1.35
15.32
31.21
49.26
69.34
90.68
111.75
130.59
145.50
155.65
161.34
163.68
163.86
162.48
159.37
154.02
146.21
136.48
126.13
116.61
108.89
102.97
97.98
92.73
86.36
78.77
70.60
62.83
56.31
51.32
47.47
43.78
39.06
32.21
22.41
9.32
-6.94
-25.78
-46.11
-66.48
-85.19
-100.61
-111.55
-117.47
-118.45
-115.08
-108.16
-98.61
-87.49
-76.01
-65.35
-56.29
-48.80
-42.09
-34.93
-26.43
-16.61
-6.45
2.62
9.43
13.72
16.10
17.62
19.17
21.07
23.05
24.56
25.14
24.63
23.26
21.47
19.74
18.31
17.05
15.47
12.94
9.07
4.04
-1.46
-6.49
-10.39
-13.18
-15.45
-17.95
-20.97
-24.03
-25.96
-25.53
-22.07
-15.83
-7.86
0.49
8.05
14.09
18.33
20.78
21.65
21.45
20.95
21.12
22.74
25.95
30.10
33.99
36.40
36.70
35.10
32.50
29.93
28.06
26.99
26.33
25.59
24.47
22.85
20.78
18.23
15.13
11.45
7.42
3.49
0.16
-2.37
-4.31
-6.24
-8.79
-12.23
-16.39
-20.74
-24.69
-27.80
-29.87
-30.72
-30.10
-27.71
-23.45
-17.66
-11.22
-5.27
-0.79
1.81
2.71
2.55
1.95
1.34
0.88
0.58
0.50
0.74
1.40
2.49
3.89
5.37
6.71
7.65
7.98
7.60
6.48
4.83
2.98
1.28
-0.11
-1.30
-2.59
-4.28
-6.45
-8.85
-11.07
-12.82
-14.11
-15.41
-17.39
-20.62
-25.23
-30.72
-36.18
-40.52
-42.91
-43.03
-41.09
-37.60
-33.10
-28.02
-22.58
-17.03
-11.71
-7.08
-3.50
-1.12
0.26
1.07
1.76
2.72
4.16
6.18
8.86
12.15
15.88
19.71
23.23
26.06
28.04
29.24
29.92
30.26
30.37
30.21
29.69
28.71
27.24
25.24
22.67
19.47
15.59
10.99
5.62
-0.57
-7.57
-15.11
-22.61
-29.12
-33.60
-35.28
-34.05
-30.57
-26.18
-22.38
-20.23
-19.75
-19.81
-18.26
-12.65
-0.95
17.66
42.37
70.91
100.09
126.80
148.93
165.80
178.11
187.16
194.02
198.82
200.51
197.19
186.93
168.71
143.14
112.67
81.14
52.75
30.80
16.59
8.86
3.99
-3.14
-17.70
-43.16
-79.81
-124.00
-168.90
-206.49
-230.34
-237.85
-230.92
-214.72
-195.08
-176.00
-158.63
-141.88
-124.25
-105.35
-86.31
-68.92
-54.27
-42.02
-30.60
-18.48
-5.26
7.88
18.59
24.53
24.59
19.42
11.19
2.65
-4.04
-7.93
-9.46
-9.82
-10.14
-10.82
-11.42
-11.10
-9.24
-6.01
-2.38
0.22
0.53
-2.04
-7.19
-13.88
-20.67
-26.11
-29.05
-28.85
-25.57
-19.95
-13.30
-7.16
-2.81
-0.64
-0.12
0.25
2.31
7.40
15.78
26.68
38.80
51.03
62.88
74.26
85.36
96.21
106.56
115.93
124.03
130.95
137.21
143.45
149.78
155.90
161.25
165.14
167.10
167.30
166.77
167.04
169.26
172.66
175.52
175.94
172.65
165.56
155.71
144.55
132.81
119.69
101.42
74.85
39.00
-4.68
-53.54
-104.83
-156.23
-205.35
-249.42
-287.91
-319.41
-342.87
-359.70
-374.98
-395.71
-426.89
-467.82
-511.24
-548.87
-570.78
-569.18
-541.90
-493.42
-432.42
-367.50
-304.19
-224.19
-124.18
-15.10
84.98
163.00
215.73
247.14
264.01
272.91
278.39
279.32
274.44
264.28
251.15
237.73
226.32
218.56
215.01
214.52
213.11
205.84
190.83
169.47
145.01
121.12
100.64
84.65
72.20
59.42
43.19
23.06
1.86
-16.86
-30.42
-37.83
-39.78
-37.94
-34.84
-32.13
-29.87
-27.29
-23.91
-19.88
-15.89
-12.71
-10.72
-10.00
-10.09
-9.86
-8.39
-5.44
-1.52
2.45
5.56
7.34
7.96
7.96
8.35
9.84
12.51
15.75
18.52
19.71
18.63
15.29
9.89
3.83
-1.84
-6.72
-11.18
-16.19
-22.80
-31.60
-41.42
-51.64
-60.68
-67.34
-71.08
-72.41
-72.52
-72.77
-74.24
-77.67
-83.68
-92.01
-101.38
-108.80
-110.09
-101.29
-80.76
-50.67
-16.66
14.03
35.83
46.71
48.50
45.20
40.63
36.77
33.63
30.43
26.81
23.59
22.09
23.34
26.96
31.61
35.70
37.92
38.08
36.87
35.50
35.00
35.74
37.26
38.68
39.05
37.92
35.47
32.39
29.55
27.53
26.42
25.87
25.39
24.63
23.56
22.50
21.87
21.90
22.52
23.35
23.94
24.10
23.96
24.00
24.79
26.64
29.44
32.62
35.56
37.71
38.99
39.73
40.57
42.20
45.28
50.33
57.44
65.86
73.68
77.96
75.65
64.89
46.09
22.06
-2.80
-24.19
-39.38
-47.87
-51.00
-50.83
-48.99
-46.36
-43.23
-39.90
-36.99
-35.39
-35.26
-36.44
-38.21
-39.61
-39.76
-38.38
-35.78
-32.78
-30.25
-28.73
-28.35
-28.69
-29.11
-29.06
-28.34
-27.10
-25.74
-24.63
-23.90
-23.42
-22.83
-21.70
-19.80
-17.19
-14.18
-11.20
-8.58
-6.43
-4.75
-3.41
-2.28
-1.24
-0.20
0.94
2.30
3.93
5.75
7.51
8.92
9.69
9.68
8.84
7.26
5.04
2.38
-0.47
-3.20
-5.54
-7.32
-8.61
-9.68
-10.87
-12.50
-14.77
-17.66
-21.06
-24.74
-28.43
-31.94
-35.18
-38.24
-41.41
-45.10
-49.67
-55.33
-61.91
-68.87
-75.43
-80.82
-84.50
-86.37
-86.74
-86.11
-84.90
-83.17
-80.61
-76.54
-70.12
-60.61
-47.58
-31.08
-11.71
9.30
30.36
49.78
66.16
78.78
87.66
93.45
97.08
99.38
100.88
101.74
101.97
101.54
100.45
98.73
96.31
93.06
88.80
83.53
77.51
71.25
65.37
60.30
56.16
52.68
49.42
46.01
42.33
38.59
35.14
32.28
30.11
28.55
27.39
26.44
25.56
24.66
23.66
22.49
21.15
19.70
18.32
17.21
16.50
16.21
16.22
16.36
16.48
16.59
16.80
17.28
18.17
19.52
21.21
23.06
24.82
26.33
27.55
28.54
29.44
30.36
31.34
32.25
32.82
32.66
31.31
28.38
23.65
17.16
9.24
0.45
-8.59
-17.34
-25.46
-32.80
-39.38
-45.23
-50.35
-54.73
-58.37
-61.34
-63.79
-65.94
-67.96
-69.92
-71.69
-73.04
-73.63
-73.21
-71.67
-69.09
-65.77
-62.05
-58.31
-54.84
-51.82
-49.36
-47.52
-0.00
-0.00
-0.00
-0.00
-0.00
-0.00
-0.00
-0.00
-0.00
-0.00
0.00
0.01
0.01
-0.00
-0.03
-0.05
-0.05
0.00
0.13
0.36
0.66
1.01
1.37
1.72
2.06
2.40
2.79
3.24
3.80
4.43
5.08
5.70
6.27
6.81
7.38
8.04
8.87
9.95
11.21
12.52
13.78
14.95
16.09
17.35
18.94
20.95
23.55
26.48
29.45
32.21
34.71
37.14
39.94
43.58
48.31
54.39
61.32
68.48
75.31
81.60
87.58
93.89
101.26
110.10
120.76
132.56
144.66
156.35
167.40
178.21
189.64
202.95
216.46
231.84
249.15
268.29
288.36
307.23
321.50
327.18
320.91
301.09
268.89
226.95
179.07
128.95
79.53
32.75
-10.37
-49.63
-85.66
-119.36
-152.20
-185.16
-218.04
-249.33
-276.89
-299.01
-315.36
-327.35
-337.46
-348.90
-364.42
-385.74
-412.87
-443.20
-471.21
-488.63
-486.22
-456.89
-399.50
-321.12
-236.19
-162.51
-115.31
-101.90
-119.54
-157.37
-201.24
-238.96
-263.18
-271.19
-262.67
-237.45
-195.35
-138.22
-72.56
-10.02
35.20
51.77
36.52
-3.37
-53.28
-97.26
-124.39
-131.93
-123.75
-105.52
-79.97
-45.24
2.44
63.67
132.05
193.96
233.10
237.33
204.45
143.39
70.68
3.75
-45.05
-70.94
-74.95
-59.80
-26.64
24.85
93.45
172.77
250.03
308.59
333.58
317.66
263.70
183.93
95.34
14.39
-46.74
-81.35
-87.27
-65.34
-18.95
45.57
118.22
185.53
232.66
247.14
223.07
163.58
80.87
-7.23
-82.67
-131.99
-149.05
-134.60
-94.00
-35.13
32.57
98.09
149.23
174.67
167.80
129.89
70.67
5.50
-50.09
-85.47
-97.30
-88.49
-65.07
-33.47
0.72
32.37
56.54
68.91
67.39
53.48
32.25
10.37
-6.28
-14.87
-15.99
-12.26
-6.64
-0.72
5.55
12.79
20.84
28.02
31.52
28.82
19.39
5.21
-10.03
-22.61
-30.35
-33.13
-31.83
-27.04
-18.29
-4.66
13.64
33.77
50.55
58.31
53.67
37.81
16.37
-2.85
-13.30
-12.47
-2.31
12.60
28.08
42.47
56.75
72.68
90.40
107.39
119.43
123.01
117.57
105.86
92.41
81.14
73.82
70.45
71.17
77.94
94.39
123.53
164.79
212.36
256.41
286.47
295.53
282.47
251.55
209.83
164.01
118.45
75.10
34.53
-2.77
-36.03
-64.69
-89.20
-111.47
-134.56
-162.15
-197.45
-241.91
-293.88
-348.09
-396.09
-428.51
-437.97
-421.66
-382.02
-325.18
-258.07
-186.13
-112.65
-40.15
27.95
86.53
130.10
155.10
161.85
154.72
140.30
124.74
111.75
102.17
94.82
88.23
81.73
75.79
71.62
70.21
71.69
75.14
78.81
80.73
79.50
74.78
67.38
58.81
50.51
43.19
36.48
29.22
20.05
8.07
-6.71
-23.39
-40.57
-57.06
-72.24
-86.22
-99.68
-113.33
-127.38
-141.26
-153.70
-163.22
-168.84
-170.50
-169.34
-167.33
-166.56
-168.46
-173.47
-180.98
-189.72
-198.30
-205.54
-210.70
-213.33
-213.04
-209.57
-202.80
-192.93
-180.58
-166.58
-151.83
-136.90
-122.02
-107.02
-91.63
-75.64
-58.94
-41.61
-23.84
-5.88
11.82
28.62
43.77
56.72
67.24
75.62
82.39
88.16
93.35
98.10
102.33
106.01
109.09
111.68
113.95
116.00
117.84
119.25
119.82
119.15
117.04
113.66
109.63
105.81
102.84
100.93
99.75
98.78
97.71
96.66
95.99
95.90
96.07
95.62
93.56
89.38
83.31
76.36
69.77
64.51
61.00
59.17
58.80
59.93
62.79
67.57
73.93
80.85
86.79
90.25
90.48
87.72
83.16
78.35
74.59
72.69
72.89
75.17
79.47
85.60
93.03
100.56
106.48
109.03
107.10
100.76
91.38
81.22
72.55
66.85
64.41
64.44
65.51
66.22
65.50
62.78
57.84
50.51
40.77
28.75
14.81
-0.39
-15.99
-31.21
-45.47
-58.37
-69.71
-79.22
-86.57
-91.43
-93.55
-92.99
-90.35
-86.67
-83.32
-81.58
-82.22
-85.27
-90.13
-95.78
-101.20
-105.49
-107.81
-107.42
-103.83
-97.07
-88.05
-78.60
-70.88
-66.59
-66.26
-68.92
-72.70
-75.69
-76.79
-76.20
-75.06
-74.77
-76.16
-79.17
-82.96
-86.44
-88.95
-90.51
-91.79
-93.62
-96.44
-99.93
-103.16
-104.85
-103.97
-99.89
-92.35
-81.22
-66.43
-48.28
-27.87
-7.47
9.84
21.08
24.43
19.97
9.50
-4.52
-19.94
-35.45
-50.41
-64.14
-75.59
-83.65
-88.08
-90.28
-93.34
-100.91
-115.72
-138.26
-166.30
-195.77
-222.07
-241.43
-251.75
-252.60
-244.83
-230.01
-209.89
-186.13
-160.25
-133.61
-107.26
-82.06
-58.38
-36.02
-14.22
8.11
32.01
57.82
84.92
111.73
136.18
156.41
171.56
181.96
188.89
194.08
198.95
204.29
210.14
215.91
220.66
223.31
223.00
219.34
212.60
203.59
193.30
182.37
170.81
158.15
143.85
127.46
108.66
87.19
63.17
37.71
13.48
-5.51
-15.18
-13.30
-0.70
18.73
39.73
57.93
71.27
80.05
85.62
89.15
90.97
91.25
90.91
91.90
96.57
106.28
120.56
137.04
152.45
164.00
170.28
171.30
168.05
161.80
153.43
143.14
130.31
113.44
90.23
58.34
17.51
-29.79
-77.40
-116.69
-139.54
-141.45
-123.14
-89.81
-48.48
-6.06
31.97
61.58
79.03
80.54
63.33
27.21
-24.70
-86.92
-153.37
-218.58
-277.67
-325.67
-357.20
-367.83
-356.13
-324.97
-280.51
-230.42
-181.03
-135.89
-96.31
-62.91
-36.19
-16.19
-1.50
10.75
23.36
37.10
49.66
57.00
56.25
48.37
38.48
33.37
37.70
51.21
68.98
84.34
92.41
92.30
86.88
80.57
76.75
76.18
77.40
78.34
77.89
76.54
75.73
76.66
79.22
81.83
82.36
79.19
72.09
62.40
52.38
44.08
38.51
35.22
32.67
28.96
22.66
13.33
1.57
-11.31
-23.77
-34.44
-42.71
-48.62
-52.74
-55.84
-58.38
-60.22
-60.46
-58.13
-52.64
-44.18
-33.67
-22.41
-11.50
-1.38
8.15
17.44
26.44
34.48
40.54
43.83
44.32
42.81
40.82
39.83
40.37
41.93
42.96
41.62
36.52
27.01
12.98
-5.15
-26.25
-48.20
-67.97
-82.45
-89.92
-91.19
-89.75
-90.29
-96.02
-106.89
-119.43
-128.32
-129.09
-120.09
-102.91
-80.21
-56.08
-33.09
-12.00
7.26
24.45
38.63
48.58
53.69
54.22
51.47
47.37
43.67
41.28
40.20
39.71
38.88
37.05
34.05
30.10
25.85
21.97
18.81
16.43
14.65
13.20
11.82
10.21
8.09
5.30
1.83
-2.12
-6.11
-9.54
-11.91
-13.00
-13.26
-13.61
-15.02
-18.11
-22.82
-28.28
-33.20
-36.53
-37.80
-37.50
-36.73
-36.70
-38.31
-42.19
-48.68
-57.56
-67.47
-75.39
-77.03
-68.32
-47.56
-16.91
17.82
49.30
71.62
82.64
84.12
80.12
74.53
69.33
64.56
59.41
53.62
48.00
43.89
42.08
42.18
42.76
42.24
39.55
34.90
29.52
24.96
22.39
21.99
22.93
23.82
23.41
21.19
17.66
14.01
11.51
10.88
11.97
13.86
15.29
15.49
14.11
11.73
9.34
7.94
8.31
10.87
15.43
20.79
24.71
24.49
18.48
7.27
-5.76
-15.53
-17.67
-10.67
3.11
18.59
30.57
36.24
36.14
33.32
31.23
31.90
35.53
41.12
47.56
53.76
58.22
58.44
51.44
35.43
10.85
-18.71
-47.81
-71.34
-86.54
-93.76
-95.49
-94.48
-92.29
-89.19
-84.70
-78.97
-73.22
-69.18
-68.21
-70.68
-76.02
-82.89
-89.09
-91.64
-87.42
-74.14
-51.85
-23.63
5.10
28.58
42.96
47.69
45.27
39.42
33.15
27.58
22.35
16.87
11.43
7.39
6.36
9.04
14.62
21.11
26.28
28.47
27.39
23.98
19.78
16.16
13.77
12.32
10.92
8.60
4.88
0.12
-4.72
-8.44
-10.12
-9.52
-7.12
-3.87
-0.81
1.34
2.43
2.74
2.85
3.25
4.17
5.54
7.04
8.44
9.55
10.37
10.93
11.25
11.35
11.58
12.66
15.40
20.07
25.71
29.91
29.44
21.65
5.86
-15.89
-39.29
-59.10
-70.80
-71.50
-60.00
-37.34
-5.83
30.47
66.11
94.85
111.08
111.60
97.07
72.19
44.19
20.35
5.35
0.08
1.95
6.74
10.54
11.09
7.96
1.96
-5.54
-13.12
-19.41
-23.11
-23.18
-19.15
-11.41
-1.28
9.32
18.52
25.09
28.74
30.07
30.16
30.08
30.57
31.86
33.74
35.69
37.10
37.42
36.32
33.78
30.13
25.94
21.84
18.28
15.39
12.95
10.56
7.83
4.60
0.93
-2.94
-6.75
-10.31
-13.54
-16.45
-19.09
-21.52
-23.87
-26.32
-29.11
-32.46
-36.54
-41.38
-46.84
-52.63
-58.31
-63.47
-67.69
-70.64
-71.97
-71.31
-68.24
-62.48
-54.11
-43.75
-32.49
-21.61
-12.14
-4.53
1.40
6.17
10.23
13.61
15.99
16.93
16.27
14.38
12.09
10.28
9.49
9.68
10.44
11.19
11.43
10.91
9.56
7.48
4.78
1.61
-1.65
-4.46
-6.17
-6.47
-5.66
-4.58
-4.20
-5.09
-7.16
-9.64
-11.64
-12.64
-13.06
-14.05
-16.64
-20.86
-25.65
-29.35
-30.43
-28.23
-22.90
-15.78
-8.79
-3.38
0.19
2.71
5.40
9.44
15.14
22.57
30.29
36.05
38.03
36.11
31.94
28.05
27.22
30.67
39.09
50.77
62.24
69.69
70.37
62.90
46.88
23.07
-8.36
-41.00
-64.98
-74.09
-71.32
-63.98
-56.74
-50.23
-42.53
-36.68
-31.44
-28.79
-32.36
-45.10
-67.95
-100.14
-141.51
-177.44
-198.52
-198.11
-175.45
-134.28
-81.26
-24.81
26.84
67.50
95.31
110.95
118.93
123.45
126.61
129.37
129.00
123.82
113.73
100.49
85.35
70.25
56.29
43.59
31.34
18.42
4.67
-9.11
-21.19
-29.95
-34.09
-33.52
-29.20
-22.79
-15.92
-9.15
-2.08
6.33
16.43
27.71
38.59
46.98
51.15
50.40
45.70
39.04
32.61
27.72
24.52
22.28
20.02
16.93
12.62
7.06
0.30
-7.46
-15.70
-23.47
-29.41
-32.35
-31.81
-28.36
-23.32
-18.18
-14.08
-11.57
-10.83
-12.00
-15.31
-20.89
-28.39
-36.81
-44.65
-50.39
-52.98
-52.13
-48.17
-41.78
-33.71
-24.66
-15.28
-6.21
1.96
8.84
14.24
18.18
20.73
21.99
22.02
20.96
19.12
16.98
15.05
13.72
13.10
13.08
13.41
13.81
14.12
14.22
14.07
13.70
13.14
12.52
11.98
11.63
11.47
11.40
11.24
10.85
10.21
9.38
8.50
7.67
6.87
6.02
4.98
3.65
2.06
0.29
-1.55
-3.40
-5.31
-7.38
-9.64
-11.90
-13.77
-14.70
-14.26
-12.38
-9.40
-5.99
-2.92
-0.75
0.24
0.14
-0.81
-2.29
-3.97
-5.57
-6.83
-7.56
-7.71
-7.35
-6.71
-6.10
-5.84
-6.14
-7.11
-8.64
-10.46
-12.09
-12.99
-12.74
-11.12
-8.27
-4.55
-0.46
3.51
6.98
9.68
11.46
12.27
12.19
11.39
10.12
8.59
7.01
5.53
4.32
3.59
3.51
4.08
5.13
6.27
7.11
7.42
7.16
6.49
5.56
4.39
2.91
1.05
-1.08
-3.13
-4.66
-5.31
-5.06
-4.24
-3.46
-3.33
-4.23
-6.18
-8.89
-11.91
-14.74
-17.04
-18.55
-19.14
-18.72
-17.29
-14.94
-11.94
-8.62
-5.33
-2.26
0.57
3.27
5.92
8.50
10.84
12.69
13.91
14.54
14.77
14.86
14.96
15.02
14.83
14.16
12.84
10.97
8.80
6.72
5.03
3.87
3.15
2.61
1.97
1.08
-0.04
-1.24
-2.29
-3.01
-3.41
-3.64
-3.96
-4.65
-5.93
-7.86
-10.37
-13.23
-16.06
-18.44
-19.95
-20.28
-19.30
-17.16
-14.22
-10.95
-7.83
-5.17
-3.05
-1.38
-0.01
1.16
2.07
2.58
2.57
2.03
1.17
0.32
-0.21
-0.27
0.10
0.64
1.10
1.29
1.23
1.04
0.88
0.83
0.83
0.71
0.30
-0.51
-1.79
-3.49
-5.51
-7.69
-9.85
-11.82
-13.50
-14.90
-16.15
-17.44
-18.95
-20.72
-22.58
-24.10
-24.71
-23.80
-20.94
-16.01
-9.32
-1.55
6.30
13.22
18.42
21.59
22.92
23.04
22.74
22.70
23.28
24.44
25.91
27.29
28.30
28.86
29.05
29.04
28.99
28.99
29.09
29.30
29.60
29.88
29.98
29.64
28.59
26.59
23.55
19.57
14.97
10.18
5.65
1.74
-1.38
-3.74
-5.53
-6.96
-8.16
-9.16
-9.87
-10.23
-10.19
-9.78
-9.03
-7.95
-6.56
-4.96
-3.39
-2.16
-1.52
-1.49
-1.76
-1.79
-1.03
0.80
3.62
6.95
10.15
12.60
13.98
14.26
13.64
12.46
10.95
9.28
7.55
5.88
4.49
3.60
3.29
3.42
3.62
3.44
2.55
0.88
-1.33
-3.67
-5.67
-7.05
-7.75
-7.99
-8.20
-8.93
-10.68
-13.70
-17.80
-22.34
-26.38
-29.04
-29.69
-28.11
-24.52
-19.39
-13.38
-7.14
-1.31
3.40
6.35
7.33
6.78
5.74
5.58
7.50
12.19
19.48
28.17
36.26
41.85
43.92
42.54
38.79
34.22
30.45
28.49
28.20
28.43
27.85
25.74
22.06
17.27
12.13
7.82
5.75
6.85
11.05
17.32
23.80
27.72
25.86
15.51
-4.26
-29.49
-52.31
-66.66
-71.68
-69.99
-64.93
-58.95
-53.11
-46.94
-39.62
-31.18
-22.95
-16.65
-13.35
-13.05
-14.71
-16.85
-17.47
-15.33
-10.60
-4.97
-0.69
0.56
-1.83
-7.23
-14.92
-22.35
-27.98
-31.52
-34.10
-37.46
-42.94
-51.14
-60.40
-71.40
-83.59
-95.45
-104.07
-105.54
-96.22
-74.70
-43.27
-7.72
24.44
47.68
60.00
63.22
61.27
57.83
54.70
51.72
48.07
43.30
38.43
34.96
33.91
35.00
36.88
37.89
36.72
33.32
28.59
24.20
21.57
21.26
22.81
24.98
26.37
26.07
24.05
21.05
18.31
16.93
17.33
19.16
21.50
23.35
23.99
23.36
21.99
20.60
19.98
20.68
22.92
26.39
30.27
33.16
33.51
30.03
22.29
11.06
-1.87
-14.29
-24.29
-30.85
-34.01
-34.65
-33.93
-32.83
-31.89
-31.28
-30.94
-30.74
-30.47
-29.88
-28.61
-26.35
-22.95
-18.42
-13.17
-7.91
-3.40
-0.22
1.48
1.97
1.76
1.38
1.16
1.21
1.53
2.10
2.88
3.74
4.47
4.78
4.47
3.58
2.44
1.55
1.38
2.08
3.38
4.71
5.49
5.39
4.49
3.21
2.06
1.41
1.31
1.54
1.69
1.44
0.71
-0.35
-1.39
-2.06
-2.16
-1.74
-1.07
-0.54
-0.47
-0.94
-1.83
-2.82
-3.53
-3.64
-2.96
-1.52
0.44
2.50
4.18
5.07
5.03
4.24
3.12
2.14
1.56
1.37
1.32
1.07
0.47
-0.48
-1.63
-2.78
-3.68
-4.08
-3.69
-2.36
-0.28
1.87
3.02
2.13
-1.25
-6.62
-12.61
-17.54
-20.18
-20.14
-17.89
-14.39
-10.48
-6.65
-3.01
0.32
3.14
5.06
5.80
5.40
4.25
2.93
1.88
1.26
0.83
0.20
-0.94
-2.61
-4.49
-6.05
-6.77
-6.35
-4.81
-2.47
0.23
2.92
5.46
7.93
10.53
13.39
16.44
19.34
21.63
22.88
22.91
21.86
20.13
18.21
16.50
15.18
14.26
13.70
13.49
13.67
14.19
14.75
14.73
13.34
9.89
4.10
-3.76
-12.87
-22.10
-30.33
-36.67
-40.56
-41.84
-40.66
-37.43
-32.74
-27.33
-21.97
-17.30
-13.71
-11.26
-9.68
-8.56
-7.46
-6.06
-4.26
-2.12
0.22
2.57
4.80
6.78
8.39
9.53
10.14
10.22
9.79
8.92
7.71
6.28
4.82
3.53
2.63
2.20
2.20
2.51
2.94
3.36
3.73
4.05
4.28
4.33
4.05
3.41
2.50
1.59
0.98
0.88
1.31
2.06
2.81
3.32
3.53
3.52
3.45
3.39
3.21
2.70
1.65
0.03
-1.98
-4.01
-5.63
-6.49
-6.42
-5.46
-3.84
-1.89
0.08
1.88
3.43
4.78
5.94
6.85
7.33
7.21
6.44
5.18
3.80
2.69
2.14
2.18
2.63
3.23
3.71
3.96
3.98
3.81
3.57
3.44
3.62
4.28
5.51
7.20
9.07
10.76
11.98
12.57
12.57
12.08
11.15
9.78
8.02
6.04
4.27
3.28
3.60
5.51
8.80
12.80
16.59
19.40
20.92
21.31
21.14
21.04
21.54
22.65
23.95
24.66
24.07
21.83
18.09
13.39
8.60
4.67
2.19
1.19
1.13
1.22
0.94
0.03
-1.45
-3.10
-4.23
-4.28
-2.93
-0.42
2.37
4.01
2.43
-4.71
-19.34
-39.85
-61.95
-79.56
-88.26
-87.51
-79.69
-68.13
-55.47
-43.16
-31.47
-20.53
-10.63
-2.51
3.06
6.17
7.54
8.31
9.57
12.04
15.63
19.57
22.82
24.53
24.91
24.65
24.55
25.09
26.21
27.19
27.10
25.11
20.37
13.88
6.72
-0.25
-6.85
-13.55
-21.22
-30.60
-40.48
-50.78
-60.25
-67.72
-72.46
-74.69
-75.41
-75.84
-77.12
-80.16
-85.84
-94.07
-103.63
-111.50
-113.29
-104.80
-84.08
-53.11
-17.62
14.80
38.14
49.98
51.96
48.21
42.83
38.24
34.75
31.60
28.21
25.03
23.09
23.13
25.32
28.66
32.12
34.84
36.67
37.90
39.05
40.42
41.95
43.36
44.39
45.06
45.66
46.58
47.99
49.68
51.19
51.90
51.41
49.70
47.27
44.95
43.75
44.67
48.04
52.85
56.32
54.30
42.93
21.01
-8.69
-39.57
-63.46
-73.99
-69.09
-51.82
-28.79
-7.45
6.68
10.82
4.83
-9.49
-29.13
-50.24
-68.54
-80.13
-82.56
-75.38
-60.49
-41.36
-21.68
-4.23
9.59
19.70
26.99
30.85
31.95
31.35
30.30
29.89
30.84
33.27
36.77
40.65
44.21
47.21
49.65
51.59
53.00
53.73
53.50
52.11
49.51
45.93
42.03
38.48
35.75
34.04
33.27
33.13
33.25
33.28
32.98
32.38
31.51
30.41
29.11
27.68
26.29
25.23
24.80
25.20
26.43
28.09
29.44
29.62
27.84
23.70
17.20
8.82
-0.67
-10.31
-19.13
-26.36
-31.48
-34.30
-35.01
-34.02
-31.87
-29.07
-25.94
-22.64
-19.22
-15.77
-12.56
-10.03
-8.71
-8.92
-10.64
-13.40
-16.49
-19.25
-21.39
-23.06
-24.58
-26.18
-27.77
-28.98
-29.47
-29.23
-28.65
-28.34
-28.69
-29.59
-30.50
-30.71
-29.85
-28.12
-26.25
-25.11
-25.30
-26.78
-28.92
-30.60
-30.63
-28.17
-22.95
-15.48
-6.86
1.56
8.69
14.09
18.21
22.18
27.13
33.50
40.52
46.25
48.47
45.84
38.85
30.05
23.13
21.41
26.48
37.60
52.03
66.11
76.30
79.83
74.76
60.08
36.04
4.55
-30.91
-66.24
-98.57
-127.88
-157.33
-191.37
-232.49
-278.56
-322.27
-353.52
-363.56
-348.84
-312.35
-262.00
-206.81
-153.11
-102.77
-54.25
-5.46
43.41
88.84
125.16
147.39
153.89
147.37
133.81
119.85
110.04
105.25
103.12
100.02
93.43
83.36
72.15
62.96
57.84
56.54
56.66
55.05
49.58
40.35
29.67
20.89
16.65
17.68
22.51
28.39
32.60
33.64
31.52
27.35
22.49
17.72
13.12
8.26
2.80
-3.18
-9.11
-14.33
-18.40
-21.31
-23.46
-25.37
-27.45
-29.87
-32.56
-35.23
-37.51
-38.92
-39.01
-37.47
-34.30
-29.88
-24.90
-20.12
-16.12
-13.17
-11.20
-9.87
-8.74
-7.36
-5.25
-1.99
2.68
8.76
15.89
23.37
30.34
36.11
40.38
43.37
45.63
47.70
49.81
51.72
52.94
52.99
51.74
49.34
46.15
42.40
38.04
32.89
26.80
19.97
12.95
6.40
0.87
-3.54
-7.20
-10.67
-14.41
-18.42
-22.11
-24.49
-24.54
-21.68
-16.03
-8.35
0.31
9.02
17.28
25.04
32.46
39.55
46.02
51.30
54.85
56.44
56.29
54.98
53.19
51.39
49.71
47.96
45.79
42.87
39.12
34.72
30.06
25.69
22.07
19.52
18.11
17.60
17.54
17.37
16.67
15.23
13.10
10.57
8.03
5.88
4.44
3.95
4.38
5.43
6.48
6.71
5.37
2.08
-2.96
-9.03
-15.13
-20.24
-23.69
-25.25
-25.20
-24.19
-23.02
-22.32
-22.34
-22.75
-22.78
-21.57
-18.65
-14.25
-9.35
-5.44
-3.98
-5.96
-11.58
-20.22
-30.54
-40.89
-49.50
-54.88
-56.09
-52.91
-45.99
-36.65
-26.61
-17.45
-10.16
-4.91
-1.24
1.50
3.66
5.12
5.50
4.56
2.55
0.07
-2.24
-4.29
-6.57
-9.89
-14.78
-20.96
-27.40
-32.69
-35.72
-36.13
-34.30
-31.00
-26.92
-22.57
-18.33
-14.55
-11.62
-9.68
-8.53
-7.70
-6.68
-5.22
-3.45
-1.62
0.14
2.12
4.91
8.86
13.70
18.54
22.35
24.48
25.14
25.23
25.91
28.23
32.38
37.66
42.78
46.41
47.54
45.67
40.84
33.72
26.08
19.61
15.27
13.02
11.97
10.88
8.76
5.24
0.66
-3.57
-6.83
-9.66
-12.91
-16.08
-16.74
-10.87
4.87
31.24
66.58
105.77
141.86
168.59
182.48
182.76
170.82
148.45
111.70
62.73
10.15
-34.99
-65.71
-81.44
-86.45
-85.56
-82.70
-79.78
-75.97
-70.29
-62.91
-55.26
-49.18
-48.09
-52.15
-60.81
-72.70
-85.23
-96.57
-106.31
-115.57
-121.93
-126.91
-131.78
-137.66
-145.24
-154.10
-162.93
-168.95
-168.01
-155.68
-130.14
-92.85
-49.60
-8.36
24.08
44.57
54.22
56.94
56.96
56.31
55.93
54.95
53.15
51.63
52.12
55.83
62.49
70.38
76.95
80.26
79.95
77.09
73.59
71.44
72.04
75.84
82.43
90.52
98.49
104.78
107.75
106.05
99.17
87.67
72.97
56.92
41.21
24.86
8.59
-6.55
-19.42
-28.97
-34.69
-36.98
-37.14
-36.93
-37.81
-39.93
-42.68
-44.94
-45.58
-43.97
-40.18
-34.87
-29.08
-23.97
-20.21
-18.32
-18.24
-19.29
-20.39
-20.43
-18.71
-15.16
-10.30
-4.70
1.03
6.49
11.45
15.67
18.78
20.36
20.14
18.18
15.04
11.46
8.24
5.94
4.76
4.57
4.98
5.48
5.55
4.69
2.48
-1.28
-6.40
-12.16
-17.41
-20.90
-21.80
-20.02
-16.30
-11.82
-7.62
-4.11
-0.99
2.38
6.48
11.17
15.76
19.31
21.17
21.29
20.15
18.47
16.85
15.56
14.57
13.73
12.98
12.37
12.00
11.91
12.04
12.20
12.13
11.55
10.19
7.86
4.55
0.47
-3.94
-8.16
-11.75
-14.56
-16.85
-19.18
-22.19
-26.39
-31.95
-38.71
-46.21
-53.96
-61.46
-68.56
-75.36
-82.25
-89.76
-98.36
-108.25
-119.19
-130.41
-140.67
-148.48
-152.38
-151.19
-144.29
-131.79
-114.55
-94.12
-72.30
-50.73
-30.44
-11.77
5.44
21.42
36.08
48.99
59.62
67.75
73.75
78.39
82.47
86.39
89.91
92.48
93.61
93.23
91.78
89.97
88.44
87.56
87.22
87.08
86.71
85.78
84.12
81.76
78.84
75.62
72.39
69.33
66.50
63.89
61.35
58.67
55.67
52.33
48.85
45.65
43.15
41.61
41.12
41.51
42.31
43.04
43.49
43.76
44.30
45.33
46.86
48.76
50.85
52.62
53.72
54.17
54.41
55.32
57.21
59.99
63.45
67.25
70.41
72.01
71.52
68.93
65.16
60.62
55.64
50.58
45.54
39.29
30.18
16.75
-1.74
-24.53
-51.14
-80.92
-111.64
-138.04
-155.43
-162.44
-161.47
-160.94
-161.80
-162.37
-160.46
-154.84
-141.88
-122.33
-99.02
-75.36
-54.10
-36.26
-22.85
-14.48
-11.10
-11.91
-16.24
-22.39
-27.72
-29.30
-24.41
-12.67
4.28
23.58
42.09
56.50
64.46
64.73
57.07
42.53
22.76
0.36
-21.24
-38.63
-49.94
-55.05
-55.50
-53.67
-51.59
-50.71
-51.85
-55.42
-61.77
-71.23
-83.42
-96.90
-109.39
-118.52
-122.92
-122.59
-118.54
-112.09
-104.27
-95.59
-86.31
-76.93
-68.30
-61.39
-56.77
-54.21
-52.81
-51.36
-48.83
-44.66
-38.69
-31.01
-21.73
-10.95
1.35
15.32
31.21
49.26
69.34
90.68
111.75
130.59
145.50
155.65
161.34
163.68
163.86
162.48
159.37
154.02
146.21
136.48
126.13
116.61
108.89
102.97
97.98
92.73
86.36
78.77
70.60
62.83
56.31
51.32
47.47
43.78
39.06
32.21
22.41
9.32
-6.94
-25.78
-46.11
-66.48
-85.19
-100.61
-111.55
-117.47
-118.45
-115.08
-108.16
-98.61
-87.49
-76.01
-65.35
-56.29
-48.80
-42.09
-34.93
-26.43
-16.61
-6.45
2.62
9.43
13.72
16.10
17.62
19.17
21.07
23.05
24.56
25.14
24.63
23.26
21.47
19.74
18.31
17.05
15.47
12.94
9.07
4.04
-1.46
-6.49
-10.39
-13.18
-15.45
-17.95
-20.97
-24.03
-25.96
-25.53
-22.07
-15.83
-7.86
0.49
8.05
14.09
18.33
20.78
21.65
21.45
20.95
21.12
22.74
25.95
30.10
33.99
36.40
36.70
35.10
32.50
29.93
28.06
26.99
26.33
25.59
24.47
22.85
20.78
18.23
15.13
11.45
7.42
3.49
0.16
-2.37
-4.31
-6.24
-8.79
-12.23
-16.39
-20.74
-24.69
-27.80
-29.87
-30.72
-30.10
-27.71
-23.45
-17.66
-11.22
-5.27
-0.79
1.81
2.71
2.55
1.95
1.34
0.88
0.58
0.50
0.74
1.40
2.49
3.89
5.37
6.71
7.65
7.98
7.60
6.48
4.83
2.98
1.28
-0.11
-1.30
-2.59
-4.28
-6.45
-8.85
-11.07
-12.82
-14.11
-15.41
-17.39
-20.62
-25.23
-30.72
-36.18
-40.52
-42.91
-43.03
-41.09
-37.60
-33.10
-28.02
-22.58
-17.03
-11.71
-7.08
-3.50
-1.12
0.26
1.07
1.76
2.72
4.16
6.18
8.86
12.15
15.88
19.71
23.23
26.06
28.04
29.24
29.92
30.26
30.37
30.21
29.69
28.71
27.24
25.24
22.67
19.47
15.59
10.99
5.62
-0.57
-7.57
-15.11
-22.61
-29.12
-33.60
-35.28
-34.05
-30.57
-26.18
-22.38
-20.23
-19.75
-19.81
-18.26
-12.65
-0.95
17.66
42.37
70.91
100.09
126.80
148.93
165.80
178.11
187.16
194.02
198.82
200.51
197.19
186.93
168.71
143.14
112.67
81.14
52.75
30.80
16.59
8.86
3.99
-3.14
-17.70
-43.16
-79.81
-124.00
-168.90
-206.49
-230.34
-237.85
-230.92
-214.72
-195.08
-176.00
-158.63
-141.88
-124.25
-105.35
-86.31
-68.92
-54.27
-42.02
-30.60
-18.48
-5.26
7.88
18.59
24.53
24.59
19.42
11.19
2.65
-4.04
-7.93
-9.46
-9.82
-10.14
-10.82
-11.42
-11.10
-9.24
-6.01
-2.38
0.22
0.53
-2.04
-7.19
-13.88
-20.67
-26.11
-29.05
-28.85
-25.57
-19.95
-13.30
-7.16
-2.81
-0.64
-0.12
0.25
2.31
7.40
15.78
26.68
38.80
51.03
62.88
74.26
85.36
96.21
106.56
115.93
124.03
130.95
137.21
143.45
149.78
155.90
161.25
165.14
167.10
167.30
166.77
167.04
169.26
172.66
175.52
175.94
172.65
165.56
155.71
144.55
132.81
119.69
101.42
74.85
39.00
-4.68
-53.54
-104.83
-156.23
-205.35
-249.42
-287.91
-319.41
-342.87
-359.70
-374.98
-395.71
-426.89
-467.82
-511.24
-548.87
-570.78
-569.18
-541.90
-493.42
-432.42
-367.50
-304.19
-224.19
-124.18
-15.10
84.98
163.00
215.73
247.14
264.01
272.91
278.39
279.32
274.44
264.28
251.15
237.73
226.32
218.56
215.01
214.52
213.11
205.84
190.83
169.47
145.01
121.12
100.64
84.65
72.20
59.42
43.19
23.06
1.86
-16.86
-30.42
-37.83
-39.78
-37.94
-34.84
-32.13
-29.87
-27.29
-23.91
-19.88
-15.89
-12.71
-10.72
-10.00
-10.09
-9.86
-8.39
-5.44
-1.52
2.45
5.56
7.34
7.96
7.96
8.35
9.84
12.51
15.75
18.52
19.71
18.63
15.29
9.89
3.83
-1.84
-6.72
-11.18
-16.19
-22.80
-31.60
-41.42
-51.64
-60.68
-67.34
-71.08
-72.41
-72.52
-72.77
-74.24
-77.67
-83.68
-92.01
-101.38
-108.80
-110.09
-101.29
-80.76
-50.67
-16.66
14.03
35.83
46.71
48.50
45.20
40.63
36.77
33.63
30.43
26.81
23.59
22.09
23.34
26.96
31.61
35.70
37.92
38.08
36.87
35.50
35.00
35.74
37.26
38.68
39.05
37.92
35.47
32.39
29.55
27.53
26.42
25.87
25.39
24.63
23.56
22.50
21.87
21.90
22.52
23.35
23.94
24.10
23.96
24.00
24.79
26.64
29.44
32.62
35.56
37.71
38.99
39.73
40.57
42.20
45.28
50.33
57.44
65.86
73.68
77.96
75.65
64.89
46.09
22.06
-2.80
-24.19
-39.38
-47.87
-51.00
-50.83
-48.99
-46.36
-43.23
-39.90
-36.99
-35.39
-35.26
-36.44
-38.21
-39.61
-39.76
-38.38
-35.78
-32.78
-30.25
-28.73
-28.35
-28.69
-29.11
-29.06
-28.34
-27.10
-25.74
-24.63
-23.90
-23.42
-22.83
-21.70
-19.80
-17.19
-14.18
-11.20
-8.58
-6.43
-4.75
-3.41
-2.28
-1.24
-0.20
0.94
2.30
3.93
5.75
7.51
8.92
9.69
9.68
8.84
7.26
5.04
2.38
-0.47
-3.20
-5.54
-7.32
-8.61
-9.68
-10.87
-12.50
-14.77
-17.66
-21.06
-24.74
-28.43
-31.94
-35.18
-38.24
-41.41
-45.10
-49.67
-55.33
-61.91
-68.87
-75.43
-80.82
-84.50
-86.37
-86.74
-86.11
-84.90
-83.17
-80.61
-76.54
-70.12
-60.61
-47.58
-31.08
-11.71
9.30
30.36
49.78
66.16
78.78
87.66
93.45
97.08
99.38
100.88
101.74
101.97
101.54
100.45
98.73
96.31
93.06
88.80
83.53
77.51
71.25
65.37
60.30
56.16
52.68
49.42
46.01
42.33
38.59
35.14
32.28
30.11
28.55
27.39
26.44
25.56
24.66
23.66
22.49
21.15
19.70
18.32
17.21
16.50
16.21
16.22
16.36
16.48
16.59
16.80
17.28
18.17
19.52
21.21
23.06
24.82
26.33
27.55
28.54
29.44
30.36
31.34
32.25
32.82
32.66
31.31
28.38
23.65
17.16
9.24
0.45
-8.59
-17.34
-25.46
-32.80
-39.38
-45.23
-50.35
-54.73
-58.37
-61.34
-63.79
-65.94
-67.96
-69.92
-71.69
-73.04
-73.63
-73.21
-71.67
-69.09
-65.77
-62.05
-58.31
-54.84
-51.82
-49.36
-47.52
