1694473510.00
64.000000
-0.00
-0.00
-0.00
-0.00
-0.00
-0.00
-0.00
-0.00
-0.00
-0.00
0.00
0.01
0.01
-0.00
-0.03
-0.05
-0.05
0.00
0.13
0.36
0.66
1.01
1.37
1.72
2.06
2.40
2.79
3.24
3.80
4.42
5.06
5.66
6.20
6.68
7.15
7.68
8.31
9.14
10.09
11.04
11.88
12.56
13.14
13.76
14.65
15.96
17.91
20.32
22.90
25.38
27.58
29.57
31.68
34.32
37.81
42.54
48.15
54.10
59.83
64.97
69.58
74.14
79.34
85.71
93.76
103.00
112.62
121.73
129.77
136.75
143.30
150.75
157.77
166.64
177.95
191.79
206.97
220.57
228.25
225.36
208.53
176.87
132.76
80.05
23.07
-34.95
-92.44
-149.16
-205.22
-260.35
-313.70
-363.84
-409.83
-450.97
-486.66
-516.01
-537.60
-549.65
-550.41
-538.81
-514.64
-479.12
-434.38
-383.04
-327.72
-270.63
-213.47
-157.48
-103.74
-53.15
-6.73
34.61
70.23
99.89
123.82
142.60
156.94
167.49
174.74
178.96
180.36
179.20
175.90
171.01
165.09
158.60
151.73
144.47
136.68
128.27
119.33
110.17
101.27
92.99
85.51
78.64
71.96
65.01
57.53
49.59
41.63
34.23
27.84
22.61
18.33
14.53
10.67
6.33
1.14
-5.07
-12.07
-18.99
-24.16
-25.52
-21.36
-11.31
3.19
19.20
33.30
43.00
47.48
47.62
45.20
41.84
38.43
35.16
31.94
28.81
26.12
24.18
23.01
22.24
21.28
19.57
16.91
13.57
10.20
7.54
6.13
6.10
7.09
8.47
9.59
10.09
10.05
9.83
9.83
10.19
10.67
10.81
10.21
8.75
6.68
4.49
2.60
1.23
0.30
-0.43
-1.13
-1.90
-2.62
-3.14
-3.38
-3.37
-3.23
-3.06
-2.89
-2.69
-2.43
-2.09
-1.74
-1.45
-1.25
-1.10
-0.98
-0.88
-0.84
-0.88
-0.92
-0.80
-0.37
0.40
1.38
2.33
3.08
3.61
4.08
4.74
5.75
7.09
8.56
9.84
10.69
10.94
10.50
9.37
7.65
5.56
3.46
1.85
0.94
0.77
1.09
1.38
1.15
0.11
-1.71
-4.00
-6.31
-8.25
-9.61
-10.38
-10.72
-10.82
-10.84
-10.82
-10.74
-10.52
-10.13
-9.54
-8.82
-8.04
-7.27
-6.59
-6.01
-5.53
-5.14
-4.83
-4.64
-4.58
-4.68
-4.93
-5.29
-5.68
-6.00
-6.17
-6.16
-5.99
-5.72
-5.39
-5.05
-4.72
-4.43
-4.25
-4.23
-4.42
-4.84
-5.47
-6.20
-6.88
-7.37
-7.58
-7.54
-7.42
-7.41
-7.76
-8.60
-9.87
-11.40
-12.83
-13.70
-13.51
-11.78
-8.01
-2.13
5.46
13.97
22.34
29.57
34.95
38.23
39.62
39.69
39.05
38.22
37.49
36.92
36.46
36.04
35.70
35.58
35.89
36.71
38.03
39.67
41.44
43.20
44.92
46.68
48.52
50.40
52.04
53.14
53.39
52.54
50.29
46.14
39.39
29.32
15.65
-1.10
-19.48
-37.47
-53.11
-65.11
-73.11
-77.59
-79.43
-79.56
-78.76
-77.69
-76.91
-76.85
-77.62
-78.84
-79.64
-79.04
-76.37
-71.67
-65.70
-59.69
-54.78
-51.55
-49.76
-48.45
-46.22
-41.68
-33.82
-22.26
-7.36
9.87
27.90
45.08
59.95
71.67
80.19
86.13
90.39
93.69
96.33
98.20
98.94
98.21
95.74
91.43
85.29
77.51
68.55
59.11
50.03
42.02
35.42
30.11
25.62
21.42
17.13
12.60
7.88
3.10
-1.62
-6.20
-10.53
-14.55
-18.19
-21.43
-24.23
-26.62
-28.59
-30.19
-31.50
-32.62
-33.64
-34.60
-35.44
-36.12
-36.69
-37.25
-38.00
-39.16
-40.83
-42.98
-45.36
-47.55
-48.97
-49.02
-47.25
-43.53
-38.16
-31.79
-25.25
-19.25
-14.26
-10.41
-7.68
-5.97
-5.21
-5.37
-6.24
-7.48
-8.60
-9.14
-8.90
-8.00
-6.80
-5.69
-4.80
-3.89
-2.50
-0.20
3.05
6.89
10.63
13.65
15.70
16.94
17.79
18.60
19.42
19.97
19.82
18.73
16.80
14.43
12.13
10.26
8.84
7.60
6.17
4.32
2.07
-0.28
-2.39
-4.08
-5.38
-6.52
-7.76
-9.17
-10.66
-12.04
-13.18
-14.13
-15.04
-16.02
-16.95
-17.47
-17.12
-15.50
-12.54
-8.49
-3.87
0.73
4.80
8.06
10.46
12.12
13.26
14.09
14.76
15.26
15.54
15.52
15.20
14.71
14.25
14.07
14.31
14.95
15.83
16.64
17.04
16.81
15.91
14.58
13.15
11.93
10.99
10.12
8.87
6.70
3.04
-2.66
-10.79
-21.36
-33.70
-46.30
-56.97
-63.58
-64.86
-61.01
-53.67
-45.25
-37.91
-32.85
-30.15
-29.18
-29.28
-30.11
-31.69
-34.13
-37.32
-41.00
-44.92
-49.04
-53.55
-58.53
-63.64
-67.94
-70.09
-68.98
-64.27
-56.66
-47.71
-39.24
-32.58
-28.20
-25.70
-24.19
-22.84
-21.10
-18.83
-16.11
-13.13
-10.08
-7.18
-4.63
-2.54
-0.79
0.93
3.10
6.01
9.64
13.61
17.39
20.56
22.97
24.74
26.10
27.27
28.31
29.22
29.92
30.31
30.17
29.22
27.24
24.26
20.67
17.13
14.29
12.40
11.21
10.16
8.79
7.03
5.33
4.30
4.34
5.35
6.76
7.85
8.12
7.39
5.74
3.27
0.06
-3.77
-7.74
-10.99
-12.42
-11.12
-6.80
0.04
8.28
16.62
24.02
29.97
34.44
37.65
39.83
41.08
41.42
40.89
39.69
38.13
36.61
35.41
34.65
34.27
34.06
33.78
33.30
32.50
31.33
29.62
27.12
23.57
18.94
13.55
8.03
3.19
-0.41
-2.63
-3.82
-4.53
-5.23
-5.99
-6.57
-6.57
-5.83
-4.55
-3.18
-2.21
-1.90
-2.17
-2.74
-3.41
-4.15
-5.17
-6.71
-8.86
-11.47
-14.31
-17.20
-20.16
-23.33
-26.72
-29.95
-32.24
-32.56
-30.07
-24.57
-16.59
-7.29
1.99
10.17
16.62
21.22
24.16
25.74
26.30
26.11
25.42
24.44
23.33
22.22
21.21
20.36
19.71
19.25
18.90
18.53
18.12
17.81
17.88
18.61
20.13
22.20
24.26
25.52
25.27
23.26
19.83
15.83
12.23
9.79
8.77
8.88
9.39
9.46
8.63
7.04
5.36
4.36
4.68
6.36
8.93
11.35
12.34
10.93
6.94
0.91
-6.06
-12.56
-17.22
-18.69
-16.08
-9.21
1.13
13.02
23.40
28.55
25.75
14.06
-3.45
-20.74
-32.38
-36.21
-33.24
-26.26
-18.24
-10.87
-4.81
0.08
3.89
6.30
6.89
5.63
2.94
-1.59
-6.91
-12.51
-18.40
-25.28
-34.06
-45.01
-57.08
-67.75
-74.17
-73.76
-65.87
-52.04
-35.58
-20.29
-9.08
-3.17
-0.53
0.27
0.69
1.35
2.17
2.68
2.41
1.26
-0.56
-2.69
-5.04
-7.35
-9.50
-11.35
-12.79
-13.71
-14.03
-13.74
-12.95
-12.20
-11.98
-12.69
-14.37
-16.50
-18.00
-17.72
-14.80
-9.13
-1.52
6.85
14.77
21.42
26.49
30.10
32.51
33.94
34.56
34.45
33.74
32.58
31.13
29.44
27.54
25.45
23.25
21.11
19.17
17.54
16.29
15.38
14.76
14.35
14.13
14.08
14.20
14.53
14.97
15.37
15.43
14.89
13.59
11.65
9.37
7.14
5.29
3.92
2.98
2.35
1.92
1.68
1.59
1.57
1.50
1.25
0.76
-0.01
-1.17
-3.06
-6.22
-11.18
-18.18
-26.95
-36.65
-46.06
-53.93
-59.20
-61.23
-59.71
-54.58
-45.96
-34.20
-20.01
-4.52
10.74
24.17
34.53
41.32
44.91
46.36
46.94
47.63
48.82
50.32
51.62
52.30
52.26
51.64
50.61
49.20
47.13
44.00
39.53
33.71
26.90
19.70
12.72
6.39
0.85
-3.99
-8.35
-12.44
-16.41
-20.28
-24.02
-27.57
-30.84
-33.74
-36.19
-38.13
-39.58
-40.67
-41.61
-42.60
-43.79
-45.17
-46.60
-47.93
-49.00
-49.83
-50.56
-51.40
-52.58
-54.36
-56.89
-60.16
-63.82
-67.02
-68.46
-66.69
-60.68
-50.33
-36.70
-21.75
-7.74
3.55
11.26
15.50
17.11
17.09
16.30
15.29
14.36
13.74
13.63
14.21
15.54
17.52
19.85
22.21
24.30
25.99
27.34
28.51
29.64
30.74
31.66
32.19
32.14
31.47
30.29
28.85
27.39
26.05
24.83
23.56
22.01
20.01
17.56
14.87
12.34
10.37
9.19
8.74
8.66
8.40
7.50
5.69
3.07
0.03
-2.94
-5.39
-7.13
-8.32
-9.37
-10.91
-13.57
-17.88
-23.95
-31.45
-39.48
-46.76
-51.95
-53.91
-52.12
-46.73
-38.57
-28.90
-19.14
-10.48
-3.68
1.05
3.97
5.65
6.75
7.87
9.44
11.75
14.89
18.84
23.40
28.32
33.52
39.13
45.52
52.96
61.26
69.47
76.01
79.21
77.93
72.04
62.39
50.41
37.64
25.35
14.49
5.74
-0.36
-3.55
-3.89
-1.87
1.69
5.99
10.34
14.20
17.13
18.60
18.13
15.46
10.73
4.58
-2.12
-8.62
-14.62
-20.31
-26.28
-33.13
-41.24
-50.49
-60.13
-68.88
-75.04
-76.94
-73.37
-64.02
-49.67
-32.00
-13.12
5.06
21.17
34.57
45.14
53.02
58.36
61.33
62.04
60.72
57.62
53.01
47.17
40.40
33.12
25.80
19.01
13.24
8.82
5.85
4.14
3.36
3.18
3.28
3.44
3.50
3.33
2.87
2.16
1.35
0.63
0.09
-0.35
-0.98
-2.15
-4.03
-6.51
-9.14
-11.40
-12.90
-13.69
-14.23
-15.25
-17.45
-21.18
-26.26
-32.10
-37.83
-42.67
-46.16
-48.32
-49.58
-50.66
-52.27
-54.83
-58.18
-61.35
-62.70
-60.27
-52.57
-39.24
-21.47
-1.77
16.79
31.58
41.10
45.23
44.89
41.42
36.15
30.14
24.26
19.18
15.46
13.31
12.59
12.82
13.37
13.76
13.81
13.67
13.72
14.41
16.05
18.71
22.19
25.99
29.49
32.12
33.55
33.82
33.22
32.18
30.94
29.48
27.50
24.67
20.80
16.00
10.67
5.31
0.36
-3.98
-7.67
-10.81
-13.46
-15.64
-17.36
-18.66
-19.71
-20.79
-22.22
-24.28
-27.16
-30.94
-35.57
-40.91
-46.62
-52.13
-56.61
-59.10
-58.74
-55.09
-48.33
-39.28
-29.12
-19.09
-10.11
-2.64
3.23
7.73
11.13
13.75
15.86
17.70
19.48
21.34
23.31
25.34
27.34
29.26
31.07
32.81
34.44
35.80
36.56
36.30
34.61
31.30
26.46
20.45
13.82
7.05
0.43
-5.96
-12.11
-18.00
-23.41
-28.01
-31.46
-33.61
-34.57
-34.72
-34.59
-34.68
-35.30
-36.49
-38.07
-39.63
-40.64
-40.55
-38.92
-35.59
-30.78
-25.04
-19.25
-14.32
-11.01
-9.60
-9.82
-10.78
-11.21
-9.84
-5.86
0.80
9.41
18.69
27.25
33.99
38.36
40.33
40.22
38.55
35.85
32.61
29.31
26.31
23.90
22.27
21.51
21.65
22.63
24.27
26.27
28.22
29.73
30.46
30.27
29.12
27.14
24.57
21.71
18.95
16.68
15.18
14.55
14.66
15.28
16.09
16.85
17.33
17.32
16.54
14.69
11.53
7.00
1.32
-5.08
-11.67
-17.99
-23.81
-29.11
-34.04
-38.81
-43.71
-48.98
-54.76
-60.86
-66.59
-70.75
-71.84
-68.57
-60.41
-47.90
-32.60
-16.60
-1.87
10.26
19.31
25.53
29.55
32.08
33.68
34.74
35.49
36.00
36.29
36.26
35.86
35.06
33.94
32.66
31.45
30.56
30.15
30.30
30.86
31.54
31.92
31.59
30.31
28.10
25.27
22.26
19.42
16.86
14.41
11.70
8.42
4.42
-0.16
-4.95
-9.52
-13.50
-16.72
-19.25
-21.33
-23.30
-25.42
-27.83
-30.55
-33.49
-36.52
-39.65
-42.96
-46.75
-51.42
-57.34
-64.57
-72.56
-80.06
-85.34
-86.64
-82.83
-73.83
-60.66
-45.07
-28.96
-13.85
-0.65
10.32
19.12
26.09
31.69
36.47
40.98
45.53
50.08
54.22
57.39
59.14
59.38
58.33
56.45
54.14
51.60
48.79
45.59
41.94
37.93
33.83
29.90
26.39
23.42
21.07
19.42
18.55
18.45
18.93
19.63
20.11
20.03
19.30
18.07
16.60
15.03
13.22
10.85
7.54
3.13
-2.21
-7.99
-13.61
-18.56
-22.57
-25.65
-28.06
-30.23
-32.62
-35.64
-39.36
-43.47
-47.19
-49.44
-49.17
-45.69
-38.98
-29.77
-19.31
-9.12
-0.55
5.57
9.00
10.14
9.74
8.64
7.50
6.70
6.32
6.28
6.47
6.75
6.97
6.94
6.47
5.57
4.46
3.61
3.49
4.32
5.87
7.46
8.16
7.24
4.39
-0.13
-5.56
-10.96
-15.52
-18.78
-20.72
-21.76
-22.44
-23.25
-24.34
-25.48
-26.15
-25.81
-24.18
-21.36
-17.75
-13.79
-9.69
-5.30
-0.29
5.50
11.73
17.48
21.60
23.12
21.69
17.71
12.07
5.96
0.53
-3.21
-4.44
-2.65
2.14
9.30
17.64
25.70
32.25
36.68
39.04
39.90
39.89
39.44
38.67
37.41
35.46
32.62
28.84
24.18
18.92
13.49
8.47
4.44
1.85
0.86
1.31
2.78
4.70
6.52
7.77
8.15
7.55
6.09
4.03
1.72
-0.48
-2.39
-3.94
-5.21
-6.28
-7.15
-7.72
-7.90
-7.72
-7.38
-7.26
-7.69
-8.86
-10.67
-12.78
-14.76
-16.29
-17.28
-17.88
-18.47
-19.47
-21.30
-24.19
-28.10
-32.57
-36.78
-39.63
-40.06
-37.45
-31.86
-24.06
-15.29
-6.85
0.35
5.88
9.83
12.51
14.28
15.37
15.91
15.97
15.62
14.95
14.05
12.99
11.87
10.84
10.05
9.65
9.72
10.20
10.91
11.63
12.17
12.39
12.27
11.88
11.30
10.65
10.02
9.46
8.95
8.40
7.74
6.88
5.85
4.72
3.63
2.63
1.69
0.65
-0.65
-2.31
-4.29
-6.39
-8.36
-10.06
-11.47
-12.72
-14.01
-15.52
-17.35
-19.59
-22.25
-25.27
-28.40
-31.15
-32.73
-32.32
-29.34
-23.72
-16.03
-7.30
1.36
9.00
15.15
19.70
22.81
24.64
25.32
24.94
23.56
21.37
18.69
15.95
13.58
11.93
11.14
11.11
11.55
12.14
12.65
13.03
13.36
13.68
13.90
13.80
13.16
11.85
9.98
7.79
5.57
3.56
1.83
0.32
-1.04
-2.39
-3.81
-5.36
-7.06
-8.91
-10.85
-12.80
-14.64
-16.26
-17.51
-18.37
-18.99
-19.74
-21.08
-23.47
-27.09
-31.72
-36.73
-41.14
-43.94
-44.27
-41.65
-36.15
-28.31
-19.10
-9.67
-1.02
6.17
11.66
15.59
18.26
19.92
20.68
20.55
19.56
17.84
15.67
13.39
11.36
9.82
8.92
8.72
9.22
10.31
11.78
13.34
14.63
15.39
15.53
15.15
14.45
13.65
12.84
11.99
10.99
9.70
8.09
6.15
3.91
1.37
-1.53
-4.81
-8.42
-12.15
-15.73
-18.85
-21.29
-23.04
-24.33
-25.55
-27.17
-29.59
-32.92
-36.92
-40.95
-44.13
-45.52
-44.40
-40.48
-34.02
-25.70
-16.50
-7.43
0.67
7.21
11.94
14.82
16.01
15.78
14.50
12.60
10.50
8.57
7.08
6.15
5.72
5.62
5.66
5.76
5.96
6.39
7.15
8.21
9.38
10.35
10.77
10.43
9.23
7.28
4.79
2.03
-0.75
-3.35
-5.72
-7.92
-10.09
-12.37
-14.82
-17.34
-19.75
-21.80
-23.36
-24.47
-25.35
-26.34
-27.80
-29.98
-32.85
-36.07
-38.93
-40.52
-39.94
-36.61
-30.44
-21.91
-11.98
-1.81
7.51
15.18
20.78
24.29
25.95
26.11
25.12
23.26
20.77
17.91
15.04
12.51
10.62
9.48
8.94
8.75
8.64
8.54
8.54
8.82
9.50
10.51
11.61
12.50
12.91
12.74
12.00
10.75
9.11
7.19
5.13
3.04
1.03
-0.88
-2.73
-4.63
-6.61
-8.66
-10.75
-12.80
-14.84
-16.95
-19.32
-22.15
-25.64
-29.90
-34.89
-40.32
-45.55
-49.64
-51.49
-50.22
-45.44
-37.46
-27.26
-16.14
-5.38
4.16
12.08
18.40
23.32
27.04
29.66
31.29
32.02
32.06
31.73
31.31
31.07
31.15
31.55
32.18
32.92
33.64
34.26
34.75
35.13
35.35
35.34
34.96
34.02
32.39
30.03
27.03
23.57
19.86
16.06
12.26
8.49
4.75
1.01
-2.71
-6.40
-10.07
-13.65
-17.07
-20.18
-22.86
-25.08
-27.00
-28.92
-31.28
-34.48
-38.65
-43.46
-48.15
-51.62
-52.68
-50.50
-44.83
-36.12
-25.41
-14.00
-3.12
6.38
14.07
19.92
24.14
27.06
28.99
30.21
30.93
31.28
31.36
31.23
30.96
30.61
30.25
29.91
29.61
29.36
29.20
29.14
29.20
29.30
29.31
29.00
28.10
26.46
24.06
21.11
17.92
14.83
12.05
9.57
7.20
4.71
1.92
-1.15
-4.30
-7.24
-9.78
-11.91
-13.83
-15.85
-18.29
-21.38
-25.24
-29.84
-34.91
-39.95
-44.15
-46.52
-46.15
-42.48
-35.60
-26.25
-15.63
-5.07
4.33
11.94
17.61
21.56
24.22
25.96
27.07
27.64
27.70
27.29
26.49
25.51
24.54
23.74
23.14
22.71
22.37
22.13
22.01
22.02
22.09
21.98
21.41
20.17
18.25
15.83
13.21
10.67
8.33
6.17
4.09
1.99
-0.14
-2.27
-4.33
-6.30
-8.21
-10.11
-11.98
-13.78
-15.42
-16.85
-18.14
-19.51
-21.27
-23.74
-27.09
-31.23
-35.69
-39.75
-42.48
-43.04
-40.89
-35.98
-28.77
-20.07
-10.88
-2.15
5.45
11.60
16.26
19.60
21.87
23.27
23.96
24.08
23.75
23.14
22.40
21.69
21.07
20.57
20.16
19.84
19.61
19.49
19.42
19.31
19.02
18.44
17.56
16.42
15.11
13.69
12.16
10.47
8.53
6.34
3.95
1.50
-0.92
-3.27
-5.66
-8.21
-11.03
-14.04
-17.03
-19.71
-21.87
-23.48
-24.68
-25.80
-27.17
-29.11
-31.77
-35.12
-38.88
-42.49
-45.20
-46.21
-44.84
-40.83
-34.39
-26.18
-17.15
-8.29
-0.40
6.06
10.95
14.43
16.85
18.60
19.97
21.12
22.03
22.65
22.95
22.99
22.95
23.01
23.25
23.63
24.02
24.28
24.35
24.23
23.98
23.64
23.16
22.47
21.50
20.21
18.63
16.78
14.71
12.42
9.94
7.32
4.66
2.05
-0.46
-2.88
-5.33
-7.94
-10.77
-13.74
-16.63
-19.17
-21.21
-22.79
-24.16
-25.74
-27.89
-30.78
-34.29
-37.96
-41.09
-42.84
-42.42
-39.36
-33.60
-25.65
-16.39
-6.96
1.61
8.62
13.83
17.37
19.65
21.13
22.21
23.12
23.93
24.61
25.07
25.26
25.13
24.64
23.83
22.75
21.54
20.41
19.55
19.11
19.09
19.30
19.46
19.26
18.53
17.19
15.39
13.31
11.18
9.15
7.30
5.61
3.96
2.21
0.23
-1.99
-4.30
-6.47
-8.24
-9.47
-10.25
-10.84
-11.60
-12.83
-14.63
-16.87
-19.24
-21.40
-23.16
-24.52
-25.71
-27.05
-28.91
-31.53
-34.98
-38.94
-42.72
-45.31
-45.65
-42.99
-37.21
-28.90
-19.22
-9.48
-0.79
6.22
11.44
15.17
17.78
19.64
20.98
21.91
22.44
22.59
22.40
21.91
21.22
20.43
19.66
19.02
18.62
18.52
18.74
19.19
19.73
20.16
20.30
20.05
19.40
18.42
17.21
15.88
14.51
13.11
11.69
10.18
8.58
6.88
5.12
3.36
1.67
0.07
-1.41
-2.73
-3.87
-4.85
-5.81
-7.00
-8.68
-11.04
-14.02
-17.36
-20.63
-23.43
-25.54
-26.97
-27.95
-28.85
-30.07
-31.94
-34.68
-38.23
-42.17
-45.70
-47.75
-47.30
-43.71
-37.02
-27.94
-17.71
-7.64
1.19
8.20
13.32
16.84
19.22
20.88
22.13
23.12
23.89
24.39
24.58
24.39
23.80
22.83
21.55
20.17
18.92
18.08
17.85
18.29
19.30
20.61
21.91
22.95
23.56
23.66
23.29
22.53
21.51
20.36
19.21
18.13
17.07
15.86
14.20
11.80
8.43
4.03
-1.27
-7.17
-13.28
-19.22
-24.77
-29.96
-35.10
-40.67
-47.11
-54.64
-63.06
-71.88
-80.37
-87.76
-93.30
-96.25
-95.91
-91.72
-83.48
-71.57
-57.02
-41.32
-25.99
-12.27
-0.78
8.46
15.76
21.58
26.20
29.78
32.31
33.78
34.24
33.91
33.08
32.04
31.04
30.22
29.63
29.34
29.38
29.85
30.73
31.98
33.39
34.75
35.85
36.55
36.81
36.63
36.05
35.11
33.85
32.24
30.25
27.82
24.94
21.72
18.33
15.00
11.87
8.95
6.10
3.09
-0.21
-3.78
-7.42
-10.81
-13.71
-16.06
-18.11
-20.33
-23.30
-27.45
-32.90
-39.21
-45.43
-50.26
-52.41
-51.01
-45.84
-37.46
-26.92
-15.55
-4.52
5.27
13.34
19.55
24.01
27.01
28.86
29.84
30.14
29.81
28.88
27.42
25.63
23.78
22.15
20.94
20.19
19.84
19.76
19.86
20.10
20.43
20.75
20.86
20.57
19.71
18.29
16.47
14.47
12.47
10.53
8.54
6.37
3.96
1.39
-1.14
-3.49
-5.66
-7.81
-10.20
-12.96
-16.05
-19.21
-22.14
-24.60
-26.59
-28.34
-30.20
-32.61
-35.90
-40.13
-44.97
-49.60
-52.81
-53.31
-50.12
-43.02
-32.64
-20.39
-7.96
3.19
12.16
18.74
23.24
26.15
27.93
28.85
29.05
28.61
27.68
26.46
25.17
24.00
23.02
22.25
21.69
21.36
21.31
21.56
22.07
22.68
23.21
23.41
23.11
22.23
20.80
18.95
16.87
14.78
12.81
10.97
9.18
7.25
5.06
2.61
0.05
-2.41
-4.65
-6.70
-8.74
-11.04
-13.74
-16.80
-20.04
-23.13
-25.83
-28.03
-29.83
-31.51
-33.51
-36.26
-40.07
-44.89
-50.22
-55.02
-57.93
-57.64
-53.35
-45.10
-33.82
-21.07
-8.52
2.52
11.40
18.11
23.05
26.70
29.39
31.26
32.28
32.48
31.96
30.91
29.59
28.22
26.91
25.72
24.73
24.02
23.75
24.01
24.77
25.79
26.69
27.04
26.56
25.18
23.10
20.63
18.12
15.76
13.50
11.15
8.40
5.04
1.03
-3.42
-7.96
-12.20
-15.86
-18.80
-20.99
-22.49
-23.35
-23.63
-23.45
-23.02
-22.63
-22.57
-23.03
-24.03
-25.57
-27.65
-30.44
-34.10
-38.60
-43.43
-47.51
-49.44
-47.93
-42.31
-32.90
-20.84
-7.81
4.64
15.38
23.95
30.36
34.86
37.68
38.98
38.82
37.37
34.96
32.05
29.16
26.76
25.07
24.11
23.69
23.55
23.47
23.36
23.24
23.19
23.17
23.02
22.45
21.15
18.95
15.89
12.21
8.32
4.60
1.30
-1.48
-3.82
-5.94
-8.10
-10.50
-13.25
-16.29
-19.41
-22.38
-25.07
-27.51
-29.91
-32.64
-36.06
-40.49
-46.01
-52.41
-59.03
-64.78
-68.28
-68.23
-63.85
-55.22
-43.30
-29.73
-16.26
-4.30
5.38
12.63
17.81
21.43
24.03
26.03
27.70
29.08
30.12
30.64
30.45
29.54
28.04
26.24
24.52
23.20
22.47
22.34
22.69
23.32
24.05
24.67
24.97
24.72
23.73
21.88
19.23
16.03
12.68
9.55
6.95
4.96
3.54
2.55
1.77
1.01
0.02
-1.41
-3.48
-6.22
-9.49
-12.99
-16.37
-19.38
-21.97
-24.34
-26.84
-29.92
-33.93
-38.89
-44.33
-49.26
-52.34
-52.21
-47.99
-39.63
-27.90
-14.28
-0.47
12.04
22.23
29.71
34.58
37.27
38.33
38.31
37.65
36.66
35.48
34.24
33.01
31.86
30.88
30.10
29.53
29.17
29.01
29.03
29.15
29.19
28.88
27.99
26.42
24.24
21.69
19.07
16.62
14.43
12.49
10.69
8.92
7.10
5.21
3.28
1.36
-0.48
-2.24
-3.97
-5.79
-7.89
-10.34
-13.12
-16.04
-18.84
-21.32
-23.48
-25.50
-27.71
-30.45
-33.93
-38.10
-42.54
-46.46
-48.80
-48.55
-44.98
-37.97
-28.13
-16.65
-4.97
5.65
14.34
20.78
25.04
27.43
28.32
28.10
27.14
25.84
24.53
23.46
22.73
22.32
22.16
22.13
22.17
22.26
22.43
22.74
23.19
23.70
24.06
23.99
23.28
21.84
19.80
17.41
14.97
12.67
10.57
8.61
6.70
4.78
2.89
1.13
-0.42
-1.75
-2.99
-4.32
-5.97
-8.06
-10.53
-13.13
-15.51
-17.38
-18.62
-19.36
-19.97
-20.90
-22.55
-25.11
-28.52
-32.33
-35.75
-37.82
-37.60
-34.50
-28.51
-20.25
-10.84
-1.59
6.41
12.50
16.56
18.86
19.89
20.09
19.76
19.08
18.12
16.99
15.81
14.72
13.83
13.21
12.81
12.61
12.59
12.81
13.40
14.44
15.89
17.51
18.95
19.79
19.76
18.81
17.16
15.20
13.33
11.82
10.69
9.79
8.90
7.88
6.75
5.67
4.82
4.28
4.02
3.88
3.65
3.12
2.17
0.77
-1.04
-3.14
-5.35
-7.52
-9.53
-11.38
-13.14
-14.99
-17.01
-19.08
-20.77
-21.28
-19.70
-15.31
-7.92
1.94
13.09
24.09
33.70
41.25
46.70
50.51
53.21
55.02
55.81
55.13
52.47
47.41
39.72
29.42
16.94
3.13
-10.65
-22.75
-31.68
-36.60
-37.59
-35.63
-32.16
-28.54
-25.67
-23.83
-22.95
-22.92
-23.66
-25.17
-27.25
-29.43
-31.01
-31.34
-30.03
-27.24
-23.64
-20.18
-17.76
-16.93
-17.73
-19.73
-22.25
-24.64
-26.51
-27.76
-28.55
-29.14
-29.74
-30.54
-31.63
-33.13
-35.05
-37.22
-39.20
-40.23
-39.48
-36.39
-30.96
-23.86
-16.27
-9.39
-4.12
-0.70
1.18
2.10
2.64
3.11
3.59
3.99
4.28
4.51
4.86
5.54
6.70
8.38
10.47
12.74
14.90
16.64
17.71
17.99
17.49
16.38
14.87
13.18
11.48
9.92
8.62
7.70
7.26
7.33
7.85
8.66
9.52
10.20
10.46
10.05
8.74
6.33
2.76
-1.74
-6.68
-11.37
-15.32
-18.36
-20.79
-23.21
-26.22
-30.05
-34.42
-38.59
-41.52
-42.27
-40.24
-35.30
-27.87
-18.72
-8.83
0.87
9.63
17.03
22.96
27.51
30.82
32.92
33.72
32.97
30.45
26.15
20.40
13.94
7.74
2.74
-0.40
-1.49
-0.81
1.13
3.75
6.61
9.38
11.79
13.54
14.29
13.84
12.24
9.78
6.93
4.13
1.54
-0.94
-3.57
-6.59
-10.02
-13.73
-17.49
-21.18
-24.83
-28.54
-32.43
-36.52
-40.74
-45.01
-49.23
-53.26
-56.85
-59.65
-61.27
-61.50
-60.55
-59.14
-58.37
-59.25
-62.21
-66.74
-71.29
-73.68
-71.63
-63.53
-48.93
-28.72
-4.91
19.80
42.67
61.51
75.05
83.06
86.22
85.74
82.92
78.84
74.19
69.39
64.72
60.43
56.76
53.87
51.73
50.12
48.75
47.35
45.83
44.24
42.72
41.35
40.10
38.79
37.15
34.99
32.24
29.00
25.49
21.98
18.63
15.54
12.69
10.05
7.63
5.51
3.72
2.26
1.00
-0.31
-1.90
-3.97
-6.57
-9.62
-12.92
-16.22
-19.33
-22.18
-24.83
-27.50
-30.47
-33.97
-38.07
-42.48
-46.56
-49.40
-50.11
-48.05
-43.13
-35.85
-27.17
-18.20
-9.92
-2.89
2.71
7.00
10.22
12.54
14.07
14.84
14.90
14.40
13.55
12.63
11.83
11.32
11.14
11.28
11.74
12.49
13.46
14.50
15.38
15.79
15.54
14.55
12.96
11.03
9.04
7.15
5.38
3.58
1.59
-0.63
-2.99
-5.23
-7.13
-8.58
-9.67
-10.64
-11.74
-13.14
-14.79
-16.52
-18.12
-19.48
-20.68
-21.92
-23.52
-25.86
-29.20
-33.66
-38.91
-44.19
-48.30
-49.94
-48.09
-42.44
-33.49
-22.45
-10.82
0.04
9.22
16.32
21.37
24.64
26.50
27.34
27.55
27.46
27.27
27.03
26.69
26.13
25.29
24.22
23.11
22.19
21.67
21.64
22.03
22.53
22.71
22.05
20.15
16.94
12.93
9.15
6.93
7.32
10.68
16.31
22.69
27.97
30.70
30.27
27.10
22.35
17.44
13.58
11.44
11.13
12.25
13.98
15.30
15.15
12.66
7.40
-0.45
-10.13
-20.53
-30.55
-39.53
-47.32
-54.14
-60.13
-65.05
-68.17
-68.55
-65.50
-59.00
-49.86
-39.36
-28.89
-19.46
-11.56
-5.22
-0.28
3.41
5.90
7.21
7.45
6.79
5.45
3.65
1.46
-1.13
-4.15
-7.62
-11.40
-15.25
-18.87
-21.94
-24.19
-25.41
-25.48
-24.37
-22.13
-18.93
-14.98
-10.53
-5.78
-0.90
3.90
8.34
12.09
14.96
17.01
18.69
20.69
23.65
27.73
32.44
36.70
39.18
38.78
35.02
28.22
19.44
10.19
2.12
-3.40
-5.54
-4.17
0.16
6.39
13.26
19.67
24.82
28.30
30.02
30.20
29.23
27.64
25.98
24.66
23.76
23.07
22.18
20.74
18.64
16.11
13.63
11.70
10.66
10.57
11.26
12.48
13.97
15.46
16.66
17.24
16.89
15.44
12.97
9.84
6.62
3.84
1.74
0.27
-1.02
-2.62
-4.94
-8.12
-11.96
-16.06
-20.03
-23.53
-26.43
-28.72
-30.54
-32.11
-33.81
-36.05
-39.14
-43.09
-47.40
-51.11
-52.98
-51.91
-47.37
-39.60
-29.54
-18.54
-7.91
1.40
8.96
14.78
19.16
22.45
25.00
27.02
28.64
29.88
30.70
31.01
30.76
30.04
29.07
28.14
27.52
27.34
27.55
28.00
28.52
28.93
29.13
29.01
28.48
27.46
25.99
24.20
22.29
20.39
18.55
16.64
14.49
11.99
9.19
6.29
3.55
1.17
-0.81
-2.55
-4.34
-6.47
-9.13
-12.29
-15.76
-19.20
-22.30
-24.88
-26.96
-28.75
-30.59
-32.87
-35.77
-39.21
-42.69
-45.36
-46.26
-44.55
-39.87
-32.50
-23.31
-13.52
-4.36
3.30
9.11
13.23
16.19
18.55
20.70
22.72
24.40
25.45
25.66
25.00
23.71
22.09
20.48
19.09
18.07
17.51
17.46
17.91
18.71
19.58
20.16
20.17
19.44
18.04
16.16
14.06
11.96
10.02
8.30
6.83
5.52
4.26
2.89
1.31
-0.53
-2.53
-4.55
-6.49
-8.37
-10.33
-12.54
-15.06
-17.73
-20.29
-22.43
-24.08
-25.46
-27.05
-29.38
-32.72
-36.93
-41.31
-44.80
-46.21
-44.68
-39.93
-32.35
-22.90
-12.82
-3.20
5.14
11.79
16.70
20.01
21.99
22.97
23.28
23.19
22.92
22.54
22.07
21.55
21.06
20.75
20.75
21.14
21.85
22.73
23.56
24.14
24.32
24.07
23.41
22.45
21.35
20.28
19.38
18.69
18.12
17.49
16.59
15.35
13.84
12.32
11.08
10.28
9.86
9.52
8.88
7.63
5.76
3.52
1.35
-0.32
-1.26
-1.54
-1.53
-1.88
-3.31
-6.44
-11.61
-18.64
-26.84
-34.95
-41.56
-45.41
-45.78
-42.68
-36.78
-29.17
-20.97
-13.07
-5.95
0.28
5.76
10.71
15.33
19.69
23.67
26.99
29.24
30.00
29.02
26.38
22.58
18.44
14.95
12.97
13.00
15.01
18.46
22.47
26.07
28.47
29.25
28.44
26.36
23.48
20.25
17.00
13.94
11.23
9.04
7.49
6.60
6.20
5.91
5.23
3.65
0.73
-3.77
-9.91
-17.52
-26.20
-35.27
-43.89
-51.25
-56.80
-60.48
-62.69
-64.14
-65.50
-67.15
-68.96
-70.38
-70.69
-69.29
-65.92
-60.74
-54.26
-47.19
-40.25
-34.05
-29.03
-25.36
-22.95
-21.50
-20.59
-19.70
-18.43
-16.42
-13.46
-9.46
-4.47
1.20
7.02
12.16
15.63
16.41
13.68
7.10
-2.94
-15.23
-27.97
-39.27
-47.69
-52.57
-54.03
-52.57
-48.71
-42.83
-35.25
-26.57
-17.78
-10.05
-4.33
-0.92
0.58
1.02
1.22
1.67
2.51
3.71
5.28
7.29
9.81
12.70
15.64
18.07
19.32
18.86
16.40
12.18
7.02
2.17
-0.97
-1.34
1.50
7.15
14.62
22.69
30.26
36.64
41.56
45.04
47.30
48.57
49.04
48.89
48.17
46.92
45.11
42.77
40.00
37.03
34.17
31.74
29.96
28.86
28.35
28.17
28.07
27.80
27.17
26.03
24.30
21.97
19.12
15.98
12.82
9.92
7.43
5.37
3.59
1.90
0.05
-2.11
-4.62
-7.41
-10.27
-13.00
-15.43
-17.55
-19.48
-21.44
-23.67
-26.36
-29.58
-33.21
-36.94
-40.17
-42.15
-42.07
-39.35
-33.84
-25.96
-16.61
-6.94
1.99
9.47
15.18
19.15
21.61
22.85
23.14
22.74
21.90
20.88
19.92
19.18
18.71
18.44
18.21
17.85
17.28
16.53
15.74
15.10
14.68
14.43
14.13
13.53
12.45
10.87
8.90
6.73
4.55
2.49
0.56
-1.23
-2.90
-4.47
-5.96
-7.42
-8.98
-10.79
-12.97
-15.54
-18.34
-21.10
-23.51
-25.39
-26.79
-28.02
-29.51
-31.72
-34.84
-38.74
-42.86
-46.31
-48.06
-47.19
-43.15
-35.99
-26.35
-15.32
-4.13
6.13
14.81
21.70
26.90
30.68
33.27
34.82
35.48
35.40
34.83
34.08
33.37
32.83
32.42
32.02
31.57
31.07
30.73
30.78
31.41
32.57
34.01
35.31
36.02
35.85
34.70
32.69
30.00
26.82
23.26
19.36
15.18
10.79
6.32
1.96
-2.13
-5.80
-8.98
-11.68
-13.95
-15.88
-17.51
-18.83
-19.74
-20.15
-19.96
-19.20
-18.04
-16.74
-15.70
-15.30
-15.91
-17.71
-20.60
-24.09
-27.36
-29.37
-29.25
-26.53
-21.34
-14.38
-6.77
0.33
5.94
9.51
11.03
10.95
10.03
9.09
8.78
9.45
11.15
13.74
16.95
20.44
23.79
26.55
28.29
28.79
28.18
26.88
25.46
24.36
23.71
23.38
23.08
22.56
21.68
20.41
18.73
16.63
14.15
11.44
8.76
6.34
4.29
2.47
0.57
-1.77
-4.77
-8.40
-12.41
-16.45
-20.15
-23.24
-25.60
-27.23
-28.30
-29.14
-30.18
-31.81
-34.25
-37.42
-40.88
-43.91
-45.69
-45.48
-42.85
-37.77
-30.66
-22.29
-13.57
-5.44
1.42
6.66
10.31
12.67
14.18
15.19
15.90
16.27
16.17
15.50
14.31
12.84
11.43
10.40
9.88
9.81
9.98
10.16
10.22
10.13
9.94
9.69
9.31
8.72
7.79
6.53
5.02
3.45
1.99
0.71
-0.41
-1.51
-2.73
-4.12
-5.66
-7.18
-8.55
-9.69
-10.65
-11.58
-12.70
-14.16
-15.96
-17.98
-20.00
-21.80
-23.24
-24.34
-25.29
-26.36
-27.88
-30.10
-33.05
-36.48
-39.78
-42.05
-42.34
-39.92
-34.59
-26.80
-17.55
-8.09
0.46
7.39
12.51
16.02
18.33
19.84
20.82
21.45
21.77
21.81
21.56
21.02
20.18
19.08
17.83
16.59
15.56
14.87
14.55
14.49
14.50
14.39
13.97
13.17
11.92
10.22
8.02
5.38
2.42
-0.62
-3.47
-5.88
-7.75
-9.12
-10.12
-10.88
-11.48
-11.90
-12.16
-12.29
-12.42
-12.64
-13.01
-13.45
-13.84
-14.09
-14.21
-14.42
-15.06
-16.55
-19.16
-22.87
-27.16
-31.08
-33.43
-33.10
-29.47
-22.65
-13.49
-3.30
6.51
14.87
21.23
25.53
28.05
29.25
29.55
29.31
28.74
27.96
26.99
25.82
24.45
22.92
21.32
19.78
18.45
17.46
16.87
16.74
17.00
17.50
17.96
18.10
17.64
16.51
14.81
12.81
10.81
9.00
7.41
5.85
4.02
1.66
-1.38
-5.04
-9.13
-13.39
-17.57
-21.49
-25.05
-28.17
-30.74
-32.55
-33.34
-32.89
-31.13
-28.25
-24.77
-21.41
-19.02
-18.31
-19.73
-23.31
-28.64
-34.77
-40.44
-44.21
-44.87
-41.75
-34.98
-25.40
-14.40
-3.43
6.32
14.09
19.56
22.79
24.05
23.74
22.32
20.26
17.96
15.66
13.42
11.15
8.70
6.05
3.32
0.77
-1.23
-2.41
-2.67
-2.11
-1.02
0.26
1.43
2.31
2.83
3.00
2.85
2.44
1.84
1.11
0.29
-0.63
-1.68
-2.88
-4.15
-5.34
-6.23
-6.59
-6.26
-5.16
-3.38
-1.10
1.35
3.64
5.46
6.71
7.39
7.64
7.59
7.29
6.68
5.75
4.60
3.51
2.86
2.99
4.09
6.23
9.36
13.40
18.17
23.34
28.42
32.82
36.08
38.05
38.91
39.01
38.63
37.80
36.38
34.20
31.31
28.05
24.97
22.59
21.23
21.01
21.85
23.64
26.23
29.49
33.20
37.10
40.79
43.81
45.59
45.50
42.97
37.64
29.51
19.04
7.07
-5.30
-16.94
-26.85
-34.31
-38.96
-40.87
-40.52
-38.74
-36.49
-34.63
-33.68
-33.70
-34.46
-35.51
-36.44
-37.03
-37.26
-37.30
-37.45
-37.92
-38.75
-39.65
-40.04
-39.18
-36.42
-31.52
-24.74
-16.83
-8.79
-1.50
4.54
9.30
13.07
16.23
19.00
21.37
23.19
24.34
24.86
25.00
25.07
25.34
25.84
26.35
26.44
25.69
23.76
20.56
16.19
10.93
5.09
-1.07
-7.35
-13.58
-19.59
-25.15
-29.91
-33.57
-35.89
-36.88
-36.74
-35.87
-34.72
-33.64
-32.83
-32.26
-31.76
-31.09
-30.13
-28.96
-27.80
-27.03
-26.89
-27.45
-28.54
-29.81
-30.90
-31.65
-32.12
-32.53
-33.22
-34.53
-36.69
-39.81
-43.72
-47.91
-51.55
-53.59
-53.10
-49.55
-43.01
-34.15
-24.03
-13.74
-4.19
4.06
10.76
15.95
19.84
22.71
24.82
26.39
27.56
28.39
28.91
29.18
29.25
29.16
28.94
28.60
28.21
27.93
27.96
28.44
29.37
30.49
31.45
31.86
31.49
30.37
28.71
26.78
24.84
23.02
21.31
19.62
17.82
15.82
13.56
11.09
8.51
6.01
3.70
1.62
-0.34
-2.39
-4.80
-7.67
-10.92
-14.31
-17.51
-20.30
-22.67
-24.85
-27.25
-30.27
-34.17
-38.90
-44.03
-48.77
-52.08
-52.89
-50.45
-44.53
-35.61
-24.75
-13.28
-2.44
6.95
14.59
20.58
25.20
28.71
31.25
32.89
33.67
33.73
33.28
32.55
31.72
30.93
30.22
29.63
29.15
28.81
28.64
28.66
28.87
29.17
29.40
29.37
28.94
28.05
26.78
25.28
23.66
21.98
20.18
18.18
15.89
13.35
10.68
8.06
5.67
3.63
1.97
0.62
-0.59
-1.88
-3.46
-5.46
-7.89
-10.66
-13.59
-16.43
-19.01
-21.19
-23.01
-24.70
-26.65
-29.37
-33.20
-38.15
-43.61
-48.48
-51.40
-51.21
-47.36
-40.12
-30.49
-19.84
-9.47
-0.32
7.22
13.15
17.72
21.22
23.87
25.80
27.11
27.90
28.30
28.45
28.45
28.36
28.18
27.91
27.57
27.24
27.05
27.14
27.56
28.23
28.95
29.43
29.45
28.88
27.77
26.27
24.56
22.77
20.95
19.04
16.99
14.75
12.38
9.98
7.69
5.59
3.71
1.99
0.34
-1.37
-3.22
-5.26
-7.52
-10.00
-12.64
-15.31
-17.86
-20.10
-21.97
-23.57
-25.18
-27.25
-30.14
-34.01
-38.64
-43.32
-47.08
-48.87
-47.86
-43.72
-36.66
-27.44
-17.10
-6.75
2.68
10.60
16.75
21.21
24.23
26.11
27.17
27.65
27.72
27.52
27.14
26.67
26.14
25.55
24.89
24.15
23.39
22.74
22.32
22.20
22.32
22.51
22.56
22.27
21.55
20.42
19.01
17.52
16.09
14.82
13.70
12.65
11.51
10.18
8.54
6.59
4.39
2.08
-0.19
-2.28
-4.11
-5.76
-7.43
-9.39
-11.83
-14.74
-17.91
-20.99
-23.69
-25.95
-27.90
-29.89
-32.27
-35.23
-38.71
-42.44
-45.86
-48.25
-48.81
-46.86
-41.98
-34.27
-24.33
-13.17
-2.00
8.11
16.42
22.60
26.68
28.99
29.97
30.09
29.79
29.37
29.04
28.87
28.88
29.01
29.23
29.54
29.99
30.70
31.81
33.42
35.44
37.59
39.41
40.33
39.83
37.60
33.56
27.98
21.32
14.20
7.17
0.59
-5.40
-10.77
-15.45
-19.12
-21.26
-21.34
-19.11
-14.93
-9.76
-4.91
-1.60
-0.52
-1.56
-3.88
-6.23
-7.45
-6.91
-4.72
-1.75
0.69
1.29
-0.86
-6.05
-13.79
-23.04
-32.42
-40.52
-46.23
-49.09
-49.46
-48.52
-47.91
-49.16
-52.95
-58.64
-64.34
-67.46
-65.79
-58.35
-45.79
-30.16
-14.07
0.20
11.35
19.07
23.79
26.18
26.86
26.37
25.24
24.05
23.28
23.08
23.17
22.90
21.60
19.02
15.45
11.67
8.57
6.72
6.08
6.10
5.96
4.96
2.85
-0.17
-3.53
-6.51
-8.52
-9.17
-8.40
-6.42
-3.66
-0.71
1.84
3.55
4.27
4.12
3.39
2.37
1.17
-0.35
-2.48
-5.55
-9.73
-14.93
-20.76
-26.52
-31.30
-34.11
-34.04
-30.61
-23.85
-14.49
-3.76
6.89
16.25
23.55
28.63
31.81
33.58
34.46
34.78
34.74
34.40
33.79
32.88
31.66
30.11
28.28
26.27
24.28
22.54
21.25
20.53
20.38
20.67
21.19
21.72
22.02
21.95
21.47
20.69
19.81
19.07
18.65
18.55
18.60
18.47
17.79
16.35
14.11
11.23
7.91
4.33
0.51
-3.63
-8.18
-13.06
-18.06
-22.81
-26.94
-30.18
-32.40
-33.67
-34.15
-34.07
-33.77
-33.65
-34.17
-35.71
-38.36
-41.79
-45.14
-47.26
-47.00
-43.61
-37.00
-27.77
-17.04
-6.10
3.90
12.21
18.46
22.70
25.22
26.43
26.75
26.51
25.93
25.12
24.09
22.82
21.32
19.59
17.74
15.89
14.27
13.11
12.60
12.85
13.85
15.48
17.51
19.66
21.60
22.89
23.12
22.01
19.55
16.13
12.49
9.57
8.22
9.01
11.96
16.57
21.90
26.78
30.04
30.80
28.58
23.42
15.77
6.37
-3.89
-14.07
-23.33
-30.94
-36.44
-39.74
-41.11
-41.18
-40.74
-40.55
-41.17
-42.84
-45.46
-48.54
-51.32
-52.84
-52.17
-48.70
-42.36
-33.74
-23.90
-14.08
-5.33
1.77
7.11
10.96
13.70
15.61
16.85
17.50
17.60
17.30
16.73
16.00
15.15
14.15
13.03
11.90
11.00
10.59
10.83
11.68
12.88
14.03
14.74
14.76
14.03
12.68
10.97
9.19
7.57
6.28
5.33
4.62
3.96
3.12
1.90
0.23
-1.77
-3.86
-5.70
-7.04
-7.80
-8.18
-8.57
-9.39
-10.90
-13.06
-15.53
-17.85
-19.62
-20.74
-21.43
-22.14
-23.36
-25.45
-28.52
-32.37
-36.50
-40.13
-42.37
-42.36
-39.52
-33.82
-25.81
-16.49
-7.04
1.55
8.68
14.17
18.17
20.90
22.59
23.35
23.30
22.56
21.35
19.93
18.53
17.37
16.58
16.19
16.14
16.31
16.57
16.82
17.04
17.25
17.46
17.61
17.55
17.12
16.23
14.93
13.41
11.90
10.52
9.26
7.95
6.39
4.53
2.47
0.47
-1.25
-2.59
-3.66
-4.73
-6.08
-7.88
-10.09
-12.52
-14.92
-17.04
-18.79
-20.20
-21.41
-22.68
-24.27
-26.49
-29.53
-33.40
-37.76
-41.83
-44.54
-44.77
-41.78
-35.53
-26.79
-16.87
-7.17
1.25
7.93
12.89
16.44
18.91
20.46
21.21
21.25
20.82
20.16
19.52
19.01
18.58
18.14
17.60
17.03
16.53
16.31
16.49
17.14
18.17
19.39
20.54
21.30
21.41
20.76
19.45
17.73
15.97
14.41
13.10
11.91
10.58
8.91
6.86
4.58
2.33
0.26
-1.57
-3.26
-4.93
-6.67
-8.49
-10.33
-12.09
-13.75
-15.28
-16.71
-18.07
-19.40
-20.81
-22.50
-24.71
-27.61
-31.11
-34.71
-37.51
-38.42
-36.52
-31.45
-23.57
-13.90
-3.78
5.57
13.40
19.43
23.79
26.72
28.46
29.16
28.97
28.08
26.72
25.12
23.46
21.86
20.42
19.21
18.25
17.51
16.96
16.62
16.63
17.22
18.55
20.53
22.82
24.90
26.35
27.08
27.38
27.78
28.74
30.39
32.53
34.67
36.26
36.85
36.19
34.24
31.26
27.73
24.33
21.70
20.15
19.43
18.68
16.59
11.88
3.81
-7.53
-21.19
-35.83
-50.17
-63.42
-75.47
-86.60
-97.09
-106.83
-115.09
-120.74
-122.62
-120.01
-112.92
-102.15
-88.98
-74.85
-60.98
-48.21
-36.95
-27.25
-18.95
-11.74
-5.26
0.77
6.46
11.67
16.14
19.60
22.02
23.58
24.56
25.19
25.53
25.58
25.41
25.27
25.52
26.36
27.59
28.56
28.40
26.47
22.66
17.48
11.89
6.82
2.86
0.15
-1.50
-2.32
-2.37
-1.59
0.15
2.73
5.79
8.74
11.02
12.28
12.48
11.89
10.91
10.02
9.61
9.86
10.69
11.70
12.24
11.58
9.20
5.00
-0.57
-6.49
-11.39
-13.75
-12.36
-6.53
3.58
16.99
32.06
46.96
60.24
71.20
79.96
87.10
93.04
97.54
99.74
98.55
93.39
84.58
73.17
60.34
46.79
32.54
17.24
0.92
-15.67
-31.10
-43.84
-52.84
-57.93
-59.70
-59.06
-56.90
-53.82
-50.19
-46.25
-42.16
-38.05
-34.09
-30.58
-27.91
-26.54
-26.65
-27.99
-29.86
-31.30
-31.53
-30.26
-27.80
-24.82
-22.01
-19.74
-17.93
-16.25
-14.38
-12.27
-10.21
-8.66
-7.90
-7.94
-8.48
-9.03
-8.97
-7.61
-4.21
1.90
11.00
22.68
35.61
47.65
56.41
59.97
57.48
49.46
37.55
24.00
10.99
0.13
-7.75
-12.56
-14.65
-14.62
-13.11
-10.72
-7.96
-5.33
-3.18
-1.66
-0.71
-0.03
0.73
1.79
3.12
4.39
5.14
5.01
3.92
2.14
0.11
-1.75
-3.19
-4.21
-4.97
-5.68
-6.47
-7.38
-8.37
-9.41
-10.48
-11.63
-12.95
-14.51
-16.31
-18.23
-20.07
-21.60
-22.64
-23.18
-23.40
-23.65
-24.33
-25.78
-28.17
-31.35
-34.82
-37.77
-39.21
-38.31
-34.67
-28.47
-20.49
-11.81
-3.52
3.60
9.20
13.33
16.34
18.63
20.57
22.27
23.70
24.66
24.98
24.59
23.64
22.36
21.06
19.93
19.07
18.48
18.17
18.15
18.37
18.72
19.00
18.95
18.39
17.28
15.78
14.13
12.59
11.26
10.13
9.06
7.86
6.43
4.73
2.87
1.03
-0.62
-1.92
-2.86
-3.55
-4.24
-5.19
-6.65
-8.63
-10.97
-13.32
-15.37
-16.92
-18.06
-19.06
-20.30
-22.12
-24.70
-27.92
-31.39
-34.44
-36.21
-35.88
-32.88
-27.10
-19.01
-9.56
0.07
8.81
15.95
21.26
24.96
27.48
29.29
30.67
31.66
32.17
32.06
31.37
30.37
29.51
29.17
29.56
30.53
31.70
32.64
33.08
33.02
32.67
32.28
31.95
31.59
30.88
29.29
26.00
19.92
9.96
-4.40
-22.53
-42.40
-60.92
-75.01
-82.66
-83.68
-79.65
-73.04
-66.19
-60.72
-57.40
-56.57
-58.43
-63.00
-69.92
-78.24
-86.79
-94.68
-101.83
-108.73
-115.77
-122.56
-127.60
-128.95
-125.18
-116.26
-103.60
-89.22
-74.76
-60.86
-47.30
-33.73
-20.34
-8.08
1.93
8.98
13.28
15.70
17.25
18.47
19.29
19.33
18.40
16.80
15.36
15.04
16.50
19.75
24.21
28.94
33.06
36.09
37.97
39.05
39.79
40.54
41.32
41.83
41.56
40.06
37.18
33.14
28.48
23.83
19.62
15.95
12.52
8.84
4.34
-1.38
-8.50
-16.84
-25.79
-34.31
-41.01
-44.42
-43.41
-37.58
-27.48
-14.47
-0.35
13.20
25.08
34.91
42.85
49.28
54.44
58.34
60.79
61.65
61.06
59.44
57.37
55.40
53.86
52.90
52.57
52.91
54.01
55.80
57.98
59.95
60.97
60.49
58.34
54.78
50.36
45.62
40.82
35.97
30.85
25.26
19.16
12.69
6.16
-0.06
-5.63
-10.41
-14.49
-18.26
-22.37
-27.49
-34.09
-42.24
-51.50
-60.92
-69.19
-74.78
-76.33
-72.91
-64.43
-51.73
-36.37
-20.23
-4.89
8.70
20.28
29.98
37.93
44.06
48.09
49.79
49.23
46.85
43.31
39.25
35.09
31.06
27.29
24.02
21.68
20.82
21.91
25.06
29.93
35.76
41.59
46.53
49.95
51.60
51.40
49.44
45.88
40.96
35.14
29.08
23.50
18.90
15.44
12.92
10.94
9.13
7.34
5.62
4.02
2.40
0.46
-2.23
-6.01
-10.93
-16.68
-22.57
-27.64
-30.83
-31.19
-28.16
-21.75
-12.66
-2.11
8.48
17.95
25.62
31.30
35.14
37.36
38.14
37.61
36.04
33.86
31.57
29.55
27.96
26.68
25.52
24.33
23.23
22.49
22.45
23.26
24.82
26.73
28.46
29.48
29.50
28.49
26.71
24.53
22.29
20.10
17.93
15.65
13.21
10.72
8.37
6.23
4.23
2.17
-0.16
-2.78
-5.53
-8.19
-10.62
-12.85
-15.02
-17.23
-19.54
-21.92
-24.42
-27.25
-30.73
-35.12
-40.36
-45.88
-50.67
-53.48
-53.21
-49.29
-41.91
-32.05
-21.19
-10.96
-2.73
2.75
5.42
5.83
4.90
3.59
2.66
2.49
3.07
4.14
5.39
6.62
7.77
8.87
9.99
11.08
12.11
13.11
14.20
15.56
17.30
19.35
21.40
23.02
23.82
23.61
22.42
20.46
17.98
15.21
12.29
9.31
6.33
3.47
0.84
-1.43
-3.29
-4.74
-5.87
-6.81
-7.66
-8.45
-9.17
-9.75
-10.13
-10.29
-10.28
-10.37
-11.10
-13.21
-17.47
-24.23
-33.15
-42.94
-51.66
-57.21
-58.10
-53.89
-45.30
-33.92
-21.61
-9.99
-0.13
7.50
12.89
16.37
18.38
19.46
20.05
20.49
21.01
21.70
22.58
23.64
24.79
25.83
26.45
26.36
25.37
23.49
20.91
17.92
14.80
11.73
8.90
6.44
4.52
3.21
2.50
2.22
2.20
2.35
2.68
3.25
3.98
4.64
4.81
4.18
2.65
0.46
-1.95
-4.16
-5.95
-7.36
-8.60
-9.88
-11.24
-12.59
-13.81
-14.87
-15.93
-17.24
-19.02
-21.32
-24.04
-26.99
-30.02
-33.08
-36.15
-39.13
-41.74
-43.47
-43.73
-41.89
-37.50
-30.35
-20.70
-9.30
2.64
13.65
22.45
28.40
31.69
33.22
34.16
35.36
36.96
38.46
39.01
38.05
35.61
32.36
29.29
27.24
26.50
26.77
27.36
27.56
27.04
25.92
24.64
23.64
23.03
22.49
21.42
19.23
15.76
11.37
6.87
3.16
0.74
-0.51
-1.37
-2.90
-5.94
-10.78
-16.99
-23.69
-30.07
-35.79
-41.08
-46.59
-53.00
-60.79
-70.19
-81.32
-94.16
-108.25
-122.28
-133.97
-140.57
-139.76
-130.71
-114.54
-93.90
-71.86
-50.67
-31.11
-12.77
5.13
22.76
39.32
53.27
63.12
68.15
68.65
65.82
61.20
56.17
51.57
47.74
44.73
42.56
41.34
41.15
41.90
43.11
44.00
43.81
42.09
38.91
34.75
30.21
25.73
21.46
17.28
12.97
8.29
3.11
-2.67
-9.03
-15.84
-22.80
-29.46
-35.41
-40.45
-44.78
-48.90
-53.42
-58.81
-65.14
-72.10
-79.12
-85.64
-91.32
-96.17
-100.53
-104.80
-109.39
-114.57
-120.56
-127.34
-134.46
-140.77
-144.42
-143.21
-135.39
-120.43
-99.33
-74.18
-47.38
-20.71
4.94
29.25
51.90
72.19
89.09
101.68
109.58
113.15
113.26
110.97
107.29
103.13
99.19
95.98
93.62
91.84
90.05
87.70
84.59
80.95
77.26
73.87
70.77
67.62
63.93
59.35
53.87
47.76
41.38
35.01
28.77
22.65
16.68
10.97
5.75
1.23
-2.48
-5.46
-7.97
-10.39
-13.04
-16.14
-19.75
-23.78
-28.13
-32.73
-37.51
-42.31
-46.72
-49.99
-51.23
-49.67
-44.97
-37.44
-28.01
-17.90
-8.31
-0.03
6.65
11.84
15.85
18.96
21.33
23.02
24.09
24.70
25.13
25.63
26.38
27.35
28.38
29.29
29.97
30.41
30.72
30.99
31.29
31.59
31.81
31.86
31.56
30.74
29.27
27.11
24.34
21.17
17.84
14.55
11.46
8.67
6.26
4.25
2.52
0.81
-1.21
-3.82
-7.10
-10.86
-14.81
-18.66
-22.27
-25.70
-29.07
-32.54
-36.17
-40.05
-44.16
-48.36
-52.23
-54.97
-55.60
-53.30
-47.76
-39.41
-29.32
-18.78
-8.97
-0.60
6.08
11.15
14.88
17.57
19.49
20.89
21.92
22.69
23.22
23.53
23.65
23.65
23.63
23.67
23.80
24.07
24.57
25.44
26.77
28.49
30.32
31.82
32.52
32.08
30.45
27.85
24.70
21.48
18.51
15.92
13.63
11.46
9.28
7.08
4.87
2.68
0.42
-2.10
-5.03
-8.32
-11.64
-14.50
-16.53
-17.66
-18.21
-18.86
-20.30
-23.04
-27.16
-32.26
-37.44
-41.49
-43.08
-41.16
-35.28
-25.86
-14.08
-1.53
10.29
20.42
28.59
35.08
40.37
44.82
48.63
51.85
54.57
56.98
59.30
61.72
64.24
66.74
69.02
70.91
72.25
72.84
72.44
70.69
67.34
62.27
55.65
47.90
39.53
31.11
23.09
15.76
9.10
2.76
-3.84
-11.33
-19.95
-29.29
-38.26
-45.39
-49.46
-50.05
-47.69
-43.51
-38.76
-34.20
-30.05
-26.26
-22.91
-20.46
-19.63
-21.05
-24.80
-30.31
-36.52
-42.31
-46.94
-50.21
-52.32
-53.54
-53.93
-53.23
-51.04
-47.06
-41.34
-34.40
-27.08
-20.26
-14.53
-10.07
-6.64
-3.83
-1.24
1.29
3.73
5.95
7.84
9.36
10.57
11.50
12.05
12.01
11.11
9.27
6.67
3.83
1.40
-0.11
-0.65
-0.62
-0.72
-1.50
-3.10
-5.16
-7.03
-8.26
-8.87
-9.44
-10.78
-13.45
-17.43
-22.07
-26.38
-29.51
-31.08
-31.36
-31.11
-31.26
-32.60
-35.45
-39.58
-44.26
-48.46
-51.12
-51.42
-48.93
-43.64
-35.92
-26.47
-16.17
-5.97
3.23
10.71
16.14
19.52
21.18
21.63
21.34
20.70
19.96
19.31
18.89
18.81
19.11
19.74
20.55
21.31
21.89
22.22
22.33
22.29
22.09
21.63
20.75
19.30
17.22
14.55
11.43
8.03
4.49
0.87
-2.78
-6.43
-10.02
-13.53
-16.98
-20.46
-24.06
-27.80
-31.56
-35.07
-38.11
-40.59
-42.71
-44.81
-47.13
-49.51
-51.31
-51.47
-48.97
-43.22
-34.32
-23.07
-10.64
1.79
13.30
23.29
31.45
37.62
41.83
44.27
45.30
45.39
44.99
44.44
43.88
43.31
42.69
41.96
41.14
40.23
39.25
38.17
37.00
35.75
34.41
32.93
31.20
29.08
26.49
23.41
19.93
16.19
12.41
8.83
5.72
3.27
1.51
0.26
-0.84
-2.16
-3.90
-5.98
-8.14
-10.13
-12.00
-14.10
-16.90
-20.74
-25.67
-31.50
-38.07
-45.38
-53.45
-62.00
-70.08
-76.13
-78.45
-75.94
-68.54
-57.17
-43.14
-27.47
-10.62
7.25
25.54
42.73
56.62
65.15
67.55
64.89
59.76
55.12
52.97
53.61
55.81
57.81
58.46
57.76
56.67
56.25
56.90
57.97
58.13
56.18
51.67
45.16
37.87
31.01
25.15
19.97
14.43
7.16
-2.95
-16.37
-32.80
-51.26
-70.33
-88.47
-104.20
-116.23
-123.56
-125.50
-121.80
-112.84
-99.74
-84.33
-68.85
-55.57
-46.19
-41.41
-40.78
-42.71
-44.98
-45.38
-42.32
-35.43
-25.60
-14.65
-4.58
3.22
8.51
12.28
16.09
21.33
28.42
36.64
44.55
50.80
54.77
56.90
58.34
60.27
63.27
67.05
70.69
73.13
73.79
72.72
70.49
67.73
64.65
60.99
56.27
50.21
43.16
36.05
30.03
25.93
23.85
23.12
22.68
21.60
19.44
16.38
12.94
9.68
6.99
4.92
3.32
1.93
0.45
-1.36
-3.69
-6.83
-11.20
-17.41
-25.95
-36.88
-49.45
-62.03
-72.54
-79.12
-80.88
-78.24
-72.70
-66.12
-59.93
-54.69
-50.14
-45.72
-41.09
-36.44
-32.29
-29.17
-27.21
-26.08
-25.14
-23.79
-21.79
-19.31
-16.82
-14.83
-13.57
-12.72
-11.42
-8.56
-3.32
4.28
13.18
21.69
28.22
32.19
34.34
36.30
39.63
44.80
50.92
56.18
58.77
57.58
52.50
44.13
33.36
21.17
8.65
-2.97
-12.47
-18.95
-22.14
-22.42
-20.57
-17.47
-13.93
-10.85
-9.28
-10.35
-14.71
-22.04
-30.82
-38.72
-43.47
-43.66
-39.22
-31.19
-21.15
-10.53
-0.28
9.16
17.61
24.95
31.04
35.80
39.26
41.60
43.14
44.27
45.38
46.76
48.52
50.54
52.42
53.58
53.43
51.64
48.19
43.49
38.17
32.88
28.06
23.86
20.12
16.53
12.81
8.79
4.51
0.18
-3.95
-7.73
-11.10
-14.14
-16.89
-19.34
-21.40
-23.00
-24.18
-25.17
-26.31
-27.95
-30.33
-33.47
-37.21
-41.34
-45.69
-50.20
-54.83
-59.37
-63.36
-66.02
-66.47
-63.97
-58.32
-49.94
-39.80
-29.08
-18.80
-9.50
-1.20
6.39
13.68
20.86
27.85
34.31
39.87
44.28
47.58
50.07
52.11
53.93
55.43
56.30
56.16
54.84
52.50
49.57
46.60
43.97
41.78
39.75
37.38
34.00
28.94
21.78
12.50
1.69
-9.50
-19.60
-27.33
-32.04
-33.98
-34.14
-33.88
-34.27
-35.79
-38.17
-40.64
-42.35
-42.74
-41.79
-39.94
-37.86
-36.14
-35.13
-34.91
-35.42
-36.53
-38.07
-39.69
-40.75
-40.33
-37.43
-31.40
-22.30
-11.09
0.60
10.99
18.75
23.40
25.33
25.45
24.74
23.93
23.39
23.33
23.97
25.64
28.63
32.98
38.29
43.79
48.52
51.66
52.85
52.27
50.54
48.51
47.00
46.57
47.37
49.16
51.27
52.86
53.12
51.45
47.60
41.63
33.79
24.37
13.66
1.98
-10.33
-22.84
-35.08
-46.60
-56.99
-65.92
-73.07
-78.20
-81.20
-82.19
-81.62
-80.15
-78.37
-76.54
-74.36
-71.05
-65.61
-57.36
-46.27
-33.13
-19.20
-5.71
6.60
17.55
27.18
35.23
40.85
42.92
40.60
33.87
23.68
11.54
-1.16
-13.62
-25.58
-36.91
-47.16
-55.36
-60.43
-61.66
-59.17
-53.81
-46.86
-39.53
-32.60
-26.43
-21.08
-16.49
-12.66
-9.66
-7.60
-6.55
-6.48
-7.23
-8.58
-10.39
-12.69
-15.74
-19.89
-25.40
-32.29
-40.19
-48.44
-56.25
-62.90
-67.86
-70.96
-72.31
-72.28
-71.23
-69.31
-66.29
-61.56
-54.39
-44.37
-31.73
-17.45
-2.88
10.70
22.55
32.52
40.76
47.46
52.70
56.59
59.52
62.30
65.92
71.15
78.18
86.42
94.77
102.03
107.24
109.87
109.80
107.12
102.03
94.68
85.17
73.51
59.83
44.46
28.16
12.04
-2.68
-15.01
-24.50
-31.32
-36.06
-39.44
-42.02
-44.14
-46.00
-47.79
-49.65
-51.70
-53.88
-55.91
-57.31
-57.58
-56.36
-53.74
-50.33
-47.14
-45.28
-45.56
-48.14
-52.44
-57.29
-61.35
-63.43
-62.62
-58.37
-50.37
-38.57
-23.34
-5.62
12.98
30.44
44.78
54.62
59.70
60.92
60.02
58.78
58.28
58.59
58.78
57.53
53.70
46.69
36.54
23.78
9.39
-5.16
-17.78
-25.87
-26.96
-19.70
-4.68
15.54
37.37
57.66
74.92
89.46
102.33
113.99
123.41
128.32
126.56
117.49
102.68
85.29
68.69
55.07
44.91
37.45
31.62
26.67
22.08
17.09
10.28
-0.16
-15.67
-36.43
-60.86
-85.86
-107.66
-122.93
-129.66
-127.58
-117.97
-103.08
-85.48
-67.50
-50.92
-36.84
-25.83
-17.97
-13.03
-10.52
-9.75
-9.92
-10.35
-10.65
-10.89
-11.47
-12.86
-15.27
-18.43
-21.65
-24.08
-25.07
-24.44
-22.39
-19.34
-15.54
-11.00
-5.56
0.84
7.99
15.37
22.39
28.66
34.17
39.23
44.18
49.17
54.04
58.41
61.90
64.23
65.29
65.08
63.69
61.20
57.77
53.61
48.96
44.05
39.13
34.36
29.86
25.60
21.41
16.98
11.92
5.98
-0.76
-7.77
-14.04
-18.32
-19.42
-16.63
-9.96
-0.23
11.06
22.20
31.72
38.71
42.94
44.74
44.68
43.28
40.90
37.78
34.15
30.36
26.82
23.88
21.71
20.24
19.24
18.41
17.48
16.20
14.42
12.02
9.05
5.70
2.41
-0.29
-1.87
-2.02
-0.75
1.55
4.26
6.74
8.53
9.48
9.80
9.84
9.98
10.35
10.87
11.23
11.05
9.99
7.84
4.63
0.51
-4.17
-9.00
-13.57
-17.65
-21.30
-24.86
-28.89
-33.88
-39.95
-46.65
-52.92
-57.43
-58.99
-56.98
-51.53
-43.40
-33.73
-23.68
-14.11
-5.59
1.65
7.50
11.97
15.08
16.89
17.58
17.43
16.85
16.25
15.97
16.19
16.89
17.86
18.88
19.81
20.68
21.64
22.87
24.52
26.68
29.35
32.51
36.07
39.86
43.65
47.13
50.10
52.57
54.81
57.24
60.17
63.45
66.34
67.64
66.04
60.55
50.84
37.22
20.42
1.15
-20.12
-43.10
-67.34
-91.89
-115.35
-136.10
-152.72
-164.30
-170.36
-170.65
-164.96
-153.33
-136.40
-115.86
-94.36
-74.83
-59.54
-49.19
-42.75
-38.11
-33.27
-27.27
-20.45
-13.94
-8.73
-4.90
-1.62
2.30
7.50
13.68
19.85
25.08
29.34
33.65
39.53
47.92
58.29
68.52
75.71
77.56
73.27
63.76
51.00
36.95
22.96
9.68
-2.37
-12.37
-19.07
-21.45
-19.51
-14.76
-9.93
-7.88
-10.42
-17.60
-27.79
-38.66
-48.18
-55.40
-60.34
-63.53
-65.31
-65.45
-63.28
-58.26
-50.50
-40.87
-30.66
-20.90
-11.84
-2.87
7.02
18.44
30.90
42.75
51.70
55.72
54.03
47.40
37.99
28.48
21.16
17.19
16.48
17.83
19.58
20.24
19.00
15.98
12.00
8.15
5.23
3.42
2.29
1.11
-0.64
-3.08
-5.96
-8.91
-11.76
-14.67
-18.05
-22.41
-28.13
-35.37
-43.95
-53.29
-62.43
-70.20
-75.30
-76.61
-73.36
-65.49
-53.89
-40.46
-27.86
-18.74
-14.83
-16.24
-21.24
-26.82
-29.72
-27.65
-20.11
-8.33
5.48
19.32
32.21
44.25
55.95
67.32
77.35
84.20
86.12
82.48
74.37
64.41
55.77
50.98
51.09
55.46
62.21
68.94
73.28
73.24
67.55
55.86
38.93
18.66
-2.36
-21.54
-37.13
-48.75
-57.28
-64.19
-70.65
-76.90
-82.30
-85.92
-87.37
-87.26
-87.07
-88.62
-93.36
-102.05
-114.56
-129.80
-145.63
-159.10
-167.07
-167.34
-159.98
-148.03
-137.13
-133.81
-142.95
-165.54
-197.90
-232.64
-261.22
-276.72
-275.79
-259.01
-229.77
-192.48
-150.81
-106.91
-61.47
-14.67
32.51
77.65
117.43
149.32
173.19
191.72
208.88
227.31
246.13
260.71
265.17
255.97
234.62
207.57
183.23
167.84
162.63
163.88
165.60
163.04
154.91
143.29
131.68
122.79
117.06
112.77
107.21
98.22
85.34
69.87
54.07
40.04
28.78
20.00
12.58
5.32
-2.37
-10.31
-17.94
-24.70
-30.44
-35.50
-40.57
-46.34
-53.18
-60.83
-68.29
-74.12
-76.80
-75.34
-69.61
-60.44
-49.26
-37.60
-26.58
-16.76
-8.16
-0.58
6.21
12.33
17.72
22.21
25.62
27.86
29.15
30.09
31.62
34.63
39.62
46.35
53.96
61.32
67.54
72.25
75.51
77.61
78.69
78.68
77.40
74.73
70.79
65.92
60.60
55.30
50.29
45.67
41.30
36.94
32.34
27.41
22.25
17.16
12.50
8.49
5.08
2.02
-0.98
-4.10
-7.35
-10.57
-13.70
-16.80
-20.13
-23.96
-28.35
-32.97
-37.06
-39.65
-39.87
-37.25
-31.93
-24.62
-16.36
-8.22
-1.03
4.82
9.28
12.52
14.75
16.12
16.68
16.53
15.82
14.77
13.62
12.51
11.47
10.41
9.30
8.17
7.21
6.64
6.61
7.12
7.94
8.78
9.32
9.35
8.80
7.71
6.16
4.31
2.29
0.26
-1.65
-3.38
-4.98
-6.54
-8.21
-10.08
-12.15
-14.32
-16.43
-18.34
-19.99
-21.40
-22.69
-23.99
-25.48
-27.27
-29.48
-32.16
-35.28
-38.60
-41.62
-43.63
-43.90
-41.85
-37.35
-30.73
-22.77
-14.39
-6.46
0.42
6.01
10.31
13.49
15.78
17.35
18.33
18.80
18.85
18.57
18.10
17.54
16.98
16.42
15.82
15.13
14.35
13.59
13.00
12.66
12.57
12.57
12.43
11.93
10.99
9.67
8.11
6.48
4.85
3.20
1.47
-0.42
-2.39
-4.34
-6.11
-7.65
-9.02
-10.40
-11.97
-13.80
-15.82
-17.84
-19.71
-21.36
-22.89
-24.51
-26.47
-28.92
-31.90
-35.27
-38.68
-41.59
-43.32
-43.19
-40.77
-35.97
-29.19
-21.14
-12.72
-4.72
2.32
8.15
12.71
16.05
18.30
19.62
20.21
20.28
20.03
19.57
18.93
18.11
17.08
15.89
14.67
13.60
12.86
12.52
12.49
12.61
12.64
12.42
11.87
11.04
10.01
8.87
7.58
6.07
4.20
1.91
-0.80
-3.78
-6.85
-9.81
-12.51
-14.88
-16.95
-18.78
-20.48
-22.12
-23.76
-25.38
-26.95
-28.38
-29.61
-30.62
-31.52
-32.56
-34.11
-36.51
-39.85
-43.82
-47.63
-50.24
-50.62
-48.14
-42.79
-35.11
-26.04
-16.55
-7.44
0.78
7.83
13.61
18.13
21.42
23.58
24.75
25.08
24.78
24.02
23.03
22.02
21.16
20.61
20.43
20.64
21.23
22.13
23.31
24.66
26.05
27.29
28.18
28.54
28.28
27.42
26.03
24.22
22.11
19.81
17.46
15.19
13.12
11.32
9.75
8.29
6.75
4.96
2.81
0.28
-2.55
-5.56
-8.61
-11.59
-14.41
-17.10
-19.72
-22.47
-25.59
-29.31
-33.73
-38.64
-43.46
-47.28
-49.08
-48.03
-43.80
-36.72
-27.66
-17.75
-8.08
0.58
7.83
13.60
18.02
21.24
23.45
24.83
25.57
25.86
25.84
25.62
25.22
24.64
23.86
22.91
21.91
21.04
20.49
20.40
20.73
21.31
21.88
22.14
21.86
20.98
19.55
17.73
15.73
13.71
11.75
9.86
7.96
6.01
3.98
1.92
-0.10
-2.04
-3.96
-5.98
-8.24
-10.81
-13.64
-16.54
-19.32
-21.80
-23.93
-25.83
-27.72
-29.92
-32.73
-36.29
-40.44
-44.63
-48.00
-49.58
-48.58
-44.67
-38.07
-29.47
-19.85
-10.16
-1.17
6.63
13.02
17.98
21.61
24.07
25.59
26.36
26.59
26.43
26.00
25.36
24.53
23.55
22.51
21.58
20.97
20.81
21.09
21.63
22.12
22.26
21.90
21.04
19.82
18.43
17.01
15.59
14.11
12.46
10.53
8.28
5.74
3.03
0.31
-2.26
-4.60
-6.74
-8.79
-10.92
-13.21
-15.68
-18.27
-20.85
-23.33
-25.67
-27.93
-30.32
-33.09
-36.50
-40.57
-45.01
-49.09
-51.83
-52.26
-49.71
-44.09
-35.89
-26.05
-15.67
-5.70
3.15
10.52
16.32
20.63
23.61
25.52
26.62
27.15
27.30
27.16
26.80
26.23
25.51
24.70
23.91
23.28
22.90
22.85
23.10
23.55
23.96
24.10
23.76
22.83
21.40
19.67
17.90
16.28
14.83
13.41
11.79
9.77
7.34
4.63
1.89
-0.64
-2.84
-4.79
-6.63
-8.56
-10.71
-13.10
-15.65
-18.29
-20.93
-23.52
-26.07
-28.60
-31.23
-34.08
-37.33
-40.98
-44.77
-48.09
-50.04
-49.72
-46.47
-40.23
-31.60
-21.67
-11.63
-2.44
5.39
11.80
16.96
21.03
24.08
26.11
27.15
27.40
27.12
26.59
25.96
25.23
24.34
23.30
22.23
21.35
20.88
20.89
21.29
21.83
22.25
22.34
22.01
21.28
20.25
19.01
17.61
16.03
14.20
12.05
9.60
6.93
4.22
1.68
-0.54
-2.40
-4.02
-5.61
-7.41
-9.62
-12.25
-15.17
-18.11
-20.84
-23.22
-25.28
-27.21
-29.30
-31.84
-35.05
-38.89
-43.07
-46.91
-49.50
-49.86
-47.31
-41.70
-33.56
-23.93
-14.03
-4.89
2.89
9.16
14.11
17.99
21.00
23.26
24.80
25.66
25.92
25.68
25.05
24.16
23.15
22.15
21.34
20.83
20.69
20.87
21.28
21.73
22.03
22.02
21.61
20.80
19.66
18.29
16.79
15.16
13.39
11.41
9.23
6.90
4.55
2.31
0.25
-1.71
-3.67
-5.72
-7.87
-10.02
-12.03
-13.88
-15.65
-17.51
-19.62
-22.02
-24.65
-27.45
-30.42
-33.68
-37.34
-41.27
-44.93
-47.39
-47.60
-44.79
-38.81
-30.26
-20.25
-10.06
-0.77
7.03
13.16
17.77
21.13
23.49
25.02
25.91
26.27
26.23
25.88
25.25
24.40
23.40
22.36
21.45
20.80
20.55
20.72
21.27
22.05
22.81
23.31
23.29
22.61
21.23
19.25
16.84
14.29
11.80
9.56
7.60
5.80
3.97
1.89
-0.58
-3.44
-6.58
-9.76
-12.78
-15.49
-17.84
-19.88
-21.72
-23.53
-25.53
-27.94
-30.90
-34.36
-38.00
-41.19
-43.11
-42.93
-40.11
-34.61
-26.92
-17.95
-8.76
-0.29
6.88
12.55
16.78
19.79
21.72
22.66
22.67
21.91
20.62
19.12
17.68
16.44
15.43
14.58
13.82
13.19
12.82
12.86
13.39
14.34
15.45
16.40
16.83
16.53
15.46
13.77
11.70
9.49
7.27
5.08
2.86
0.56
-1.80
-4.16
-6.42
-8.49
-10.36
-12.11
-13.92
-16.06
-18.76
-22.13
-26.01
-29.92
-33.12
-34.77
-34.20
-31.11
-25.71
-18.58
-10.57
-2.47
5.04
11.51
16.67
20.42
22.74
23.74
23.62
22.63
21.05
19.16
17.17
15.30
13.72
12.58
11.96
11.88
12.24
12.92
13.74
14.52
15.04
15.09
14.47
13.04
10.83
8.04
5.01
2.10
-0.45
-2.65
-4.71
-6.94
-9.57
-12.60
-15.80
-18.84
-21.42
-23.45
-25.04
-26.48
-28.12
-30.33
-33.34
-37.14
-41.43
-45.50
-48.36
-48.99
-46.61
-41.02
-32.70
-22.67
-12.21
-2.48
5.75
12.25
17.18
20.89
23.67
25.68
26.94
27.43
27.23
26.56
25.71
24.91
24.24
23.63
22.99
22.27
21.58
21.08
20.94
21.16
21.56
21.85
21.72
20.96
19.49
17.37
14.79
12.00
9.24
6.69
4.41
2.31
0.21
-2.05
-4.58
-7.37
-10.27
-13.18
-15.96
-18.61
-21.16
-23.69
-26.26
-28.99
-32.01
-35.48
-39.44
-43.72
-47.79
-50.79
-51.70
-49.67
-44.39
-36.20
-26.03
-15.11
-4.58
4.76
12.51
18.63
23.22
26.46
28.54
29.72
30.25
30.40
30.35
30.14
29.78
29.21
28.47
27.59
26.68
25.85
25.17
24.70
24.45
24.35
24.29
24.07
23.46
22.32
20.61
18.43
15.98
13.51
11.20
9.11
7.18
5.23
3.11
0.71
-1.93
-4.75
-7.63
-10.53
-13.40
-16.18
-18.80
-21.12
-23.11
-24.91
-26.81
-29.22
-32.49
-36.67
-41.39
-45.88
-49.09
-50.01
-47.92
-42.62
-34.57
-24.65
-14.05
-3.87
5.08
12.35
17.89
21.88
24.62
26.43
27.56
28.22
28.54
28.60
28.42
28.02
27.40
26.60
25.73
24.89
24.25
23.91
23.89
24.12
24.40
24.50
24.15
23.20
21.62
19.53
17.19
14.85
12.76
10.98
9.46
8.00
6.40
4.51
2.34
0.02
-2.25
-4.32
-6.14
-7.78
-9.42
-11.24
-13.30
-15.58
-17.95
-20.26
-22.43
-24.47
-26.52
-28.77
-31.44
-34.63
-38.26
-41.99
-45.13
-46.83
-46.24
-42.82
-36.52
-27.87
-17.87
-7.68
1.66
9.46
15.43
19.65
22.41
24.06
24.93
25.30
25.35
25.18
24.82
24.25
23.45
22.40
21.19
19.95
18.89
18.19
17.91
18.03
18.37
18.72
18.89
18.72
18.13
17.07
15.55
13.62
11.38
9.01
6.69
4.54
2.62
0.88
-0.78
-2.42
-4.10
-5.81
-7.54
-9.27
-11.04
-12.87
-14.81
-16.84
-18.92
-21.00
-23.04
-25.15
-27.48
-30.26
-33.61
-37.36
-40.99
-43.64
-44.39
-42.50
-37.74
-30.48
-21.58
-12.13
-3.09
4.84
11.32
16.30
19.89
22.24
23.56
24.07
24.06
23.77
23.42
23.08
22.73
22.23
21.47
20.44
19.29
18.27
17.62
17.49
17.81
18.33
18.73
18.70
18.10
16.95
15.38
13.56
11.66
9.73
7.80
5.86
3.92
2.02
0.21
-1.49
-3.04
-4.52
-6.01
-7.63
-9.46
-11.52
-13.75
-16.02
-18.22
-20.26
-22.17
-24.00
-25.85
-27.88
-30.27
-33.18
-36.65
-40.36
-43.68
-45.63
-45.27
-41.97
-35.77
-27.33
-17.76
-8.21
0.42
7.67
13.45
17.86
21.03
23.04
23.99
24.01
23.35
22.27
21.01
19.76
18.61
17.59
16.71
15.97
15.42
15.08
14.99
15.17
15.56
16.06
16.48
16.60
16.19
15.18
13.65
11.84
10.04
8.41
6.96
5.52
3.86
1.86
-0.41
-2.75
-4.92
-6.82
-8.49
-10.11
-11.85
-13.78
-15.86
-17.95
-19.94
-21.78
-23.50
-25.27
-27.24
-29.61
-32.50
-35.90
-39.62
-43.17
-45.87
-46.91
-45.59
-41.59
-35.03
-26.55
-17.09
-7.67
0.88
8.04
13.66
17.82
20.76
22.71
23.83
24.23
23.99
23.24
22.10
20.74
19.33
18.00
16.85
15.96
15.35
15.06
15.07
15.39
15.96
16.68
17.36
17.74
17.56
16.70
15.17
13.22
11.19
9.37
7.86
6.55
5.18
3.51
1.45
-0.89
-3.27
-5.44
-7.27
-8.78
-10.18
-11.70
-13.52
-15.69
-18.12
-20.60
-22.93
-24.99
-26.82
-28.59
-30.61
-33.17
-36.47
-40.49
-44.86
-48.86
-51.55
-51.99
-49.49
-43.85
-35.49
-25.30
-14.41
-3.88
5.48
13.27
19.39
23.97
27.21
29.35
30.60
31.15
31.20
30.90
30.36
29.60
28.64
27.49
26.26
25.16
24.43
24.22
24.52
25.15
25.78
26.07
25.80
24.91
23.50
21.75
19.87
18.01
16.23
14.51
12.74
10.83
8.72
6.45
4.14
1.93
-0.13
-2.13
-4.20
-6.48
-8.96
-11.56
-14.08
-16.41
-18.52
-20.48
-22.45
-24.56
-26.96
-29.80
-33.21
-37.20
-41.49
-45.45
-48.16
-48.63
-46.10
-40.41
-32.01
-21.86
-11.17
-1.03
7.82
15.08
20.75
25.01
28.01
29.85
30.60
30.37
29.40
28.04
26.69
25.64
25.01
24.78
24.83
25.03
25.29
25.54
25.69
25.69
25.50
25.18
24.87
24.72
24.71
24.64
24.15
22.90
20.77
17.98
15.02
12.45
10.65
9.62
8.96
8.06
6.40
3.79
0.56
-2.52
-4.50
-4.57
-2.47
1.31
5.51
8.29
7.64
1.79
-10.37
-28.84
-52.26
-77.93
-102.29
-121.78
-133.91
-138.05
-135.54
-128.91
-120.58
-111.75
-101.97
-89.81
-74.00
-54.50
-32.71
-11.01
8.27
23.63
34.66
41.72
45.38
46.12
44.23
40.23
35.02
29.87
26.07
24.40
24.74
26.10
26.99
26.10
22.93
18.04
12.84
8.86
7.05
7.32
8.64
9.57
9.02
6.71
3.23
-0.49
-3.67
-6.19
-8.54
-11.47
-15.48
-20.52
-25.98
-30.97
-34.74
-37.11
-38.48
-39.72
-41.77
-45.30
-50.38
-56.44
-62.35
-66.75
-68.34
-66.25
-60.14
-50.39
-37.91
-24.04
-10.19
2.50
13.47
22.83
31.16
39.21
47.42
55.60
62.97
68.39
70.90
70.07
66.28
60.51
54.10
48.30
43.98
41.40
40.36
40.29
40.56
40.69
40.40
39.64
38.46
36.94
35.11
32.98
30.50
27.61
24.33
20.68
16.83
12.97
9.30
5.96
2.96
0.22
-2.40
-4.94
-7.37
-9.52
-11.31
-12.80
-14.28
-16.19
-18.97
-22.86
-27.82
-33.43
-39.07
-43.94
-47.21
-48.20
-46.47
-41.90
-34.81
-25.85
-15.94
-6.00
3.23
11.38
18.44
24.67
30.38
35.73
40.60
44.66
47.52
48.96
49.10
48.36
47.28
46.34
45.78
45.58
45.62
45.75
45.93
46.16
46.37
46.41
46.01
44.89
42.89
40.10
36.78
33.31
30.05
27.18
24.66
22.25
19.61
16.43
12.57
8.11
3.38
-1.17
-5.13
-8.29
-10.71
-12.72
-14.83
-17.57
-21.29
-26.06
-31.47
-36.73
-40.73
-42.36
-40.83
-35.90
-28.04
-18.26
-7.80
2.23
11.09
18.54
24.70
29.79
33.99
37.33
39.68
40.97
41.17
40.44
39.03
37.21
35.27
33.39
31.72
30.26
28.94
27.59
26.04
24.17
22.03
19.76
17.49
15.36
13.31
11.16
8.67
5.58
1.72
-2.95
-8.32
-14.03
-19.48
-23.98
-26.96
-28.25
-28.11
-27.17
-26.11
-25.43
-25.29
-25.71
-26.66
-28.30
-30.89
-34.63
-39.37
-44.51
-49.04
-51.87
-52.21
-49.80
-44.96
-38.41
-31.00
-23.33
-15.73
-8.23
-0.91
5.99
11.93
16.33
18.77
19.24
18.20
16.39
14.54
13.15
12.46
12.42
12.78
13.11
12.85
11.38
8.20
3.21
-3.22
-10.28
-16.96
-22.38
-26.01
-27.72
-27.64
-25.93
-22.67
-17.85
-11.55
-4.11
3.75
11.05
16.72
20.03
20.76
19.31
16.45
13.04
9.64
6.38
3.04
-0.83
-5.60
-11.46
-18.34
-25.88
-33.45
-40.12
-44.87
-46.77
-45.28
-40.51
-33.12
-24.16
-14.69
-5.49
3.02
10.72
17.58
23.54
28.44
32.11
34.43
35.38
35.04
33.60
31.27
28.27
24.83
21.22
17.73
14.63
12.19
10.52
9.57
9.11
8.90
8.76
8.72
9.04
10.08
12.14
15.27
19.20
23.31
26.86
29.18
29.92
29.21
27.53
25.55
23.79
22.36
20.98
19.12
16.39
12.72
8.49
4.33
0.79
-1.91
-4.02
-6.15
-8.95
-12.88
-17.91
-23.50
-28.73
-32.62
-34.35
-33.54
-30.25
-24.96
-18.35
-11.19
-4.15
2.19
7.44
11.39
13.98
15.32
15.59
15.09
14.15
13.12
12.26
11.70
11.40
11.17
10.84
10.32
9.65
9.03
8.69
8.81
9.41
10.39
11.57
12.76
13.85
14.79
15.56
16.13
16.41
16.29
15.63
14.29
12.22
9.45
6.10
2.41
-1.33
-4.79
-7.64
-9.62
-10.59
-10.64
-10.09
-9.41
-9.19
-9.90
-11.73
-14.47
-17.47
-19.83
-20.59
-19.11
-15.33
-9.92
-4.18
0.30
2.20
0.92
-3.07
-8.56
-14.17
-19.14
-23.78
-29.32
-37.19
-48.06
-61.24
-74.82
-86.42
-94.11
-97.21
-96.16
-92.16
-86.58
-80.62
-75.28
-71.33
-69.10
-67.87
-65.58
-59.20
-45.94
-24.80
2.49
31.66
57.46
75.61
84.29
84.50
79.05
71.14
63.12
55.92
49.32
42.65
35.39
27.49
19.40
11.75
4.94
-1.08
-6.84
-13.02
-19.89
-26.94
-32.94
-36.48
-36.80
-34.23
-30.16
-26.33
-23.90
-22.75
-21.67
-19.11
-14.13
-7.03
0.80
7.69
12.45
14.87
15.47
15.01
13.88
12.01
9.20
5.54
1.71
-1.26
-2.47
-1.58
1.09
4.80
8.87
12.93
16.91
20.81
24.42
27.26
28.79
28.67
27.08
24.63
22.14
20.26
19.18
18.68
18.30
17.71
16.82
15.87
15.16
14.94
15.19
15.61
15.68
14.86
12.73
9.15
4.33
-1.30
-7.25
-13.20
-19.03
-24.71
-30.10
-34.70
-37.72
-38.28
-35.83
-30.40
-22.75
-14.03
-5.45
2.12
8.34
13.34
17.46
21.01
24.08
26.52
28.14
28.78
28.56
27.76
26.78
25.93
25.26
24.62
23.76
22.51
20.93
19.30
17.92
16.98
16.36
15.75
14.81
13.36
11.45
9.33
7.27
5.46
3.93
2.62
1.40
0.20
-1.00
-2.25
-3.58
-5.12
-6.99
-9.26
-11.97
-14.98
-18.05
-20.88
-23.19
-24.86
-25.99
-26.86
-27.85
-29.39
-31.74
-34.99
-38.88
-42.89
-46.24
-48.06
-47.65
-44.70
-39.44
-32.58
-25.13
-18.04
-11.96
-7.10
-3.26
-0.04
2.98
6.04
9.11
11.98
14.32
15.93
16.74
16.88
16.59
16.13
15.72
15.52
15.63
16.09
16.83
17.75
18.69
19.48
19.96
20.09
19.91
19.51
19.02
18.48
17.83
16.91
15.55
13.69
11.39
8.88
6.42
4.23
2.36
0.70
-0.95
-2.74
-4.75
-6.95
-9.24
-11.58
-13.90
-16.20
-18.43
-20.63
-22.91
-25.47
-28.51
-32.09
-35.93
-39.41
-41.72
-42.10
-40.20
-36.18
-30.60
-24.21
-17.67
-11.40
-5.58
-0.29
4.43
8.54
12.07
15.12
17.79
20.18
22.26
23.90
24.97
25.44
25.44
25.24
25.15
25.36
25.94
26.78
27.66
28.31
28.54
28.20
27.30
25.95
24.30
22.55
20.89
19.46
18.29
17.33
16.32
14.93
12.87
10.03
6.64
3.11
-0.06
-2.58
-4.47
-5.99
-7.50
-9.21
-11.11
-12.99
-14.62
-15.97
-17.24
-18.79
-21.00
-24.05
-27.86
-32.00
-35.81
-38.50
-39.38
-38.00
-34.32
-28.71
-21.86
-14.56
-7.58
-1.47
3.56
7.50
10.55
12.94
14.88
16.50
17.87
19.01
19.93
20.62
21.06
21.25
21.18
20.89
20.47
20.07
19.88
20.04
20.59
21.42
22.27
22.82
22.79
22.10
20.85
19.26
17.58
15.93
14.29
12.58
10.71
8.72
6.74
4.88
3.21
1.65
0.04
-1.74
-3.75
-5.94
-8.26
-10.65
-13.08
-15.54
-17.98
-20.35
-22.66
-25.00
-27.58
-30.63
-34.18
-38.02
-41.59
-44.12
-44.88
-43.37
-39.55
-33.75
-26.68
-19.12
-11.77
-5.14
0.53
5.18
8.91
11.84
14.09
15.80
17.04
17.90
18.37
18.48
18.25
17.73
17.07
16.49
16.21
16.39
17.02
17.89
18.74
19.27
19.35
18.97
18.25
17.34
16.36
15.33
14.25
13.09
11.80
10.35
8.69
6.85
4.89
2.90
0.98
-0.85
-2.64
-4.53
-6.62
-8.93
-11.41
-13.91
-16.29
-18.45
-20.41
-22.35
-24.52
-27.20
-30.54
-34.44
-38.48
-41.99
-44.18
-44.40
-42.36
-38.17
-32.32
-25.48
-18.33
-11.46
-5.26
0.10
4.59
8.31
11.42
14.00
16.09
17.69
18.77
19.42
19.73
19.83
19.83
19.76
19.65
19.51
19.45
19.57
19.92
20.46
21.00
21.31
21.19
20.58
19.53
18.22
16.79
15.37
13.96
12.50
10.91
9.16
7.27
5.34
3.46
1.68
-0.06
-1.86
-3.83
-6.04
-8.48
-11.04
-13.58
-15.98
-18.18
-20.20
-22.16
-24.22
-26.59
-29.44
-32.84
-36.63
-40.41
-43.54
-45.27
-44.98
-42.36
-37.56
-31.16
-23.95
-16.73
-10.07
-4.25
0.73
4.97
8.59
11.65
14.15
16.09
17.50
18.42
18.93
19.08
18.97
18.73
18.55
18.61
19.01
19.73
20.64
21.51
22.14
22.42
22.33
21.97
21.44
20.81
20.10
19.22
18.05
16.49
14.51
12.18
9.69
7.26
5.04
3.13
1.49
0.01
-1.46
-3.09
-5.00
-7.31
-10.00
-12.94
-15.92
-18.68
-21.12
-23.32
-25.56
-28.27
-31.77
-36.15
-41.07
-45.85
-49.56
-51.37
-50.71
-47.53
-42.24
-35.60
-28.49
-21.63
-15.44
-10.05
-5.35
-1.15
2.68
6.19
9.35
12.07
14.26
15.92
17.17
18.14
18.98
19.79
